Name
Date of Birth,"Jun 6, 1995"
Recorded Date,2025-11-08 21:20:41 -0500
Classification,Sinus Rhythm
Symptoms,
Software Version,1.90
Device,"Watch7,17"
Sample Rate,512 hertz


Lead,Lead I
Unit,µV

-590.823
-788.578
-904.11
-926.778
-880.362
-804.79
-737.009
-694.024
-670.41
-648.219
-610.836
-554.145
-490.939
-445.355
-438.741
-482.442
-567.568
-667.108
-753.193
-803.522
-813.149
-795.376
-765.906
-736.867
-711.522
-682.446
-640.792
-581.915
-504.385
-412.272
-312.019
-206.252
-97.323
14.737
130.841
245.314
352.825
447.881
526.023
592.679
651.481
703.857
751.302
786.306
807.152
820.077
831.537
856.525
903.493
967.417
1040.191
1102.74
1138.078
1143.13
1119.634
1082.685
1051.223
1034.142
1036.836
1052.878
1068.975
1078.084
1074.936
1060.928
1043.314
1025.658
1010.219
997.491
985.146
972.435
959.611
946.618
933.833
921.297
908.53
895.221
881.16
866.041
849.618
831.78
812.431
791.562
769.285
745.675
720.819
694.851
667.847
639.885
611.064
581.47
551.229
520.52
489.527
458.488
427.662
397.261
367.495
338.518
310.381
283.106
256.652
230.928
205.883
181.484
157.685
134.471
111.806
89.632
67.903
46.542
25.439
4.484
-16.452
-37.476
-58.629
-79.922
-101.324
-122.759
-144.177
-165.538
-186.797
-207.935
-228.934
-249.774
-270.456
-290.974
-311.302
-331.399
-351.208
-370.669
-389.747
-408.419
-426.677
-444.53
-461.975
-479.008
-495.625
-511.812
-527.546
-542.799
-557.531
-571.693
-585.247
-598.158
-610.399
-621.948
-632.777
-642.859
-652.166
-660.672
-668.351
-675.18
-681.134
-686.195
-690.347
-693.581
-695.894
-697.288
-697.768
-697.341
-696.018
-693.813
-690.743
-686.827
-682.086
-676.543
-670.225
-663.163
-655.388
-646.936
-637.844
-628.153
-617.903
-607.137
-595.899
-584.232
-572.183
-559.794
-547.109
-534.175
-521.033
-507.728
-494.302
-480.796
-467.251
-453.707
-440.201
-426.767
-413.44
-400.25
-387.224
-374.389
-361.766
-349.376
-337.236
-325.361
-313.763
-302.452
-291.436
-280.718
-270.302
-260.186
-250.368
-240.844
-231.607
-222.649
-213.959
-205.526
-197.339
-189.383
-181.645
-174.109
-166.76
-159.581
-152.556
-145.666
-138.896
-132.227
-125.643
-119.129
-112.667
-106.244
-99.845
-93.458
-87.07
-80.67
-74.249
-67.798
-61.311
-54.782
-48.206
-41.58
-34.903
-28.174
-21.393
-14.562
-7.683
-0.761
6.201
13.197
20.221
27.267
34.327
41.393
48.457
55.511
62.546
69.552
76.519
83.439
90.303
97.1
103.821
110.457
117.001
123.442
129.773
135.988
142.078
148.037
153.861
159.544
165.082
170.471
175.709
180.792
185.72
190.492
195.107
199.566
203.869
208.02
212.019
215.87
219.576
223.141
226.57
229.866
233.034
236.079
239.007
241.823
244.532
247.14
249.652
252.075
254.413
256.672
258.859
260.977
263.027
265.01
266.928
268.78
270.574
272.312
273.984
275.596
277.162
278.689
280.195
281.679
283.099
284.441
285.721
286.898
287.912
288.725
289.262
289.495
289.524
289.377
288.975
288.43
288.002
287.677
287.387
287.204
286.651
286.237
287.874
291.014
293.984
294.184
285.497
267.772
247.361
229.912
225.07
235.397
251.045
264.744
267.717
255.436
236.594
217.212
201.552
193.435
188.359
183.065
177.09
168.939
159.807
150.859
141.624
132.192
122.567
112.552
102.309
91.999
81.63
71.255
60.979
50.847
40.854
31.033
21.401
11.966
2.785
-6.101
-14.7
-22.985
-30.921
-38.529
-45.802
-52.717
-59.309
-65.575
-71.424
-76.84
-81.83
-86.199
-89.805
-92.813
-95.191
-96.843
-98.269
-98.801
-97.563
-95.922
-94.347
-94.787
-100.89
-110.593
-120.612
-127.335
-124.413
-112.998
-99.182
-87.444
-83.635
-87.489
-93.39
-99.363
-104.568
-111.583
-123.326
-136.793
-147.343
-148.893
-140.111
-126.865
-114.701
-109.119
-110.802
-114.775
-117.921
-118.257
-115.673
-112.603
-110.321
-109.37
-110.305
-113.021
-117.174
-122.079
-126.764
-130.513
-132.696
-132.508
-129.347
-123.122
-115.719
-110.985
-112.551
-122.893
-141.147
-165.226
-195.376
-233.705
-286.793
-361.391
-459.657
-581.15
-717.355
-853.748
-974.54
-1060.743
-1099.479
-1088.1
-1031.618
-944.62
-842.948
-736.243
-629.711
-523.434
-416.032
-310.809
-213.286
-129.115
-63.382
-17.334
10.507
22.011
19.781
7.114
-12.618
-35.851
-59.11
-80.176
-97.764
-110.652
-118.127
-120.403
-118.152
-112.569
-105.299
-97.391
-89.629
-83.132
-78.675
-76.535
-76.757
-78.922
-82.262
-86.256
-90.334
-93.655
-95.677
-96.131
-94.897
-92.17
-88.259
-83.422
-78.025
-72.551
-67.349
-62.632
-58.518
-54.985
-52.007
-49.582
-47.665
-46.185
-45.076
-44.289
-43.79
-43.568
-43.598
-43.824
-44.183
-44.606
-45.032
-45.427
-45.774
-46.065
-46.301
-46.493
-46.66
-46.828
-47.029
-47.29
-47.633
-48.077
-48.646
-49.363
-50.258
-51.357
-52.687
-54.266
-56.111
-58.233
-60.644
-63.349
-66.352
-69.652
-73.246
-77.131
-81.304
-85.76
-90.491
-95.489
-100.741
-106.231
-111.944
-117.861
-123.96
-130.216
-136.602
-143.092
-149.654
-156.258
-162.87
-169.456
-175.981
-182.408
-188.701
-194.823
-200.736
-206.403
-211.789
-216.858
-221.575
-225.907
-229.822
-233.291
-236.284
-238.775
-240.742
-242.161
-243.014
-243.285
-242.961
-242.029
-240.484
-238.319
-235.533
-232.128
-228.107
-223.478
-218.252
-212.442
-206.065
-199.139
-191.688
-183.735
-175.307
-166.434
-157.145
-147.474
-137.455
-127.123
-116.514
-105.664
-94.611
-83.393
-72.047
-60.61
-49.121
-37.615
-26.129
-14.699
-3.359
7.859
18.924
29.804
40.473
50.903
61.07
70.951
80.527
89.778
98.689
107.245
115.436
123.252
130.688
137.738
144.402
150.679
156.573
162.088
167.232
172.013
176.439
180.523
184.276
187.713
190.847
193.694
196.27
198.594
200.686
202.569
204.263
205.789
207.171
208.428
209.584
210.656
211.659
212.605
213.509
214.384
215.245
216.104
216.97
217.85
218.752
219.683
220.646
221.638
222.651
223.679
224.717
225.769
226.848
227.964
229.12
230.317
231.554
232.826
234.121
235.411
236.653
237.801
238.814
239.658
240.308
240.728
240.875
240.693
240.122
239.112
237.616
235.606
233.068
230.017
226.491
222.558
218.307
213.83
209.236
204.624
200.086
195.694
191.515
187.693
184.374
181.665
179.575
177.92
176.419
174.779
172.644
169.527
165
158.805
151.094
142.603
134.174
126.845
122.009
121.051
125.414
134.6
144.421
149.082
143.139
127.175
111.667
109.19
125.646
148.716
143.565
69.65
-97.035
-342.63
-613.612
-838.942
-960.979
-964.906
-875.153
-734.749
-584.332
-438.15
-294.894
-157.622
-35.915
47.56
72.081
41.455
-22.739
-88.676
-126.321
-128.406
-105.209
-73.814
-52.579
-47.52
-54.087
-64.864
-71.625
-71.397
-66.743
-62.487
-61.701
-63.939
-66.592
-63.462
-52.905
-40.569
-31.484
-33.933
-51.602
-75.595
-97.385
-108.042
-100.319
-79.26
-53.451
-30.539
-18.418
-19.135
-28.188
-39.081
-46.149
-44.221
-33.237
-18.934
-5.014
4.874
8.477
9.261
9.339
9.461
11.058
12.984
14.286
15.37
16.112
16.654
17.33
18.025
18.634
19.228
19.809
20.343
20.85
21.343
21.806
22.255
22.713
23.165
23.611
24.058
24.504
24.948
25.395
25.843
26.299
26.772
27.274
27.813
28.4
29.045
29.762
30.562
31.458
32.463
33.583
34.827
36.202
37.716
39.376
41.183
43.132
45.223
47.457
49.841
52.397
55.138
58.072
61.203
64.531
68.047
71.741
75.588
79.537
83.545
87.564
91.557
95.508
99.386
103.151
106.753
110.123
113.207
115.979
118.41
120.489
122.235
123.686
124.919
126.056
127.207
128.488
130.008
131.854
134.141
136.97
140.479
144.886
150.291
156.673
163.934
171.745
179.643
187.211
193.843
198.761
201.541
202.082
200.553
197.834
195.22
193.803
194.745
199.374
207.214
217.018
228.465
239.167
247.862
253.469
249.244
229.499
189.931
128.125
49.799
-38.533
-134.344
-237.726
-348.905
-463.215
-566.345
-637.504
-662.144
-635.371
-564.37
-466.388
-357.178
-248.854
-148.016
-56.493
26.119
102.318
172.674
237.336
294.534
339.472
370.298
386.718
389.634
382.629
368.248
348.072
324.42
299.174
273.638
249.334
227.232
207.752
191.652
179.283
170.022
163.046
157.596
152.722
148.005
143.285
137.999
132.002
125.698
119.606
114.493
111.163
109.883
110.713
113.824
119.098
126.238
134.848
144.251
153.811
163.174
172.104
180.42
187.988
194.664
200.353
205.085
208.935
211.968
214.233
215.764
216.645
217.014
217.048
216.946
216.841
216.814
216.929
217.231
217.773
218.601
219.716
221.09
222.698
224.512
226.509
228.67
230.937
233.237
235.493
237.618
239.55
241.246
242.666
243.776
244.546
244.95
244.975
244.619
243.872
242.719
241.143
239.128
236.669
233.776
230.453
226.709
222.547
217.967
212.978
207.601
201.855
195.763
189.349
182.643
175.691
168.558
161.309
153.998
146.664
139.334
132.038
124.81
117.687
110.705
103.876
97.206
90.703
84.389
78.284
72.399
66.713
61.168
55.713
50.331
45.038
39.866
34.843
29.989
25.329
20.919
16.858
13.247
10.164
7.656
5.762
4.533
4.062
4.494
5.952
8.513
12.227
17.132
23.282
30.734
39.524
49.609
60.883
73.234
86.567
100.824
115.949
131.865
148.46
165.562
183.009
200.657
218.343
235.882
253.055
269.613
285.34
300.101
313.805
326.369
337.706
347.692
356.2
363.11
368.293
371.662
373.158
372.734
370.413
366.262
360.378
352.919
344.036
333.831
322.426
309.948
296.524
282.338
267.606
252.574
237.575
222.932
208.914
195.777
183.698
172.841
163.403
155.525
149.34
144.976
142.469
141.843
143.153
146.295
151.057
157.086
163.771
170.644
177.479
183.999
189.95
195.126
199.206
202.172
204.373
205.656
205.426
203.002
197.492
188.268
175.048
157.05
133.044
102.407
65.155
21.808
-26.609
-79.516
-136.7
-197.245
-259.471
-321.723
-382.806
-442.143
-499.606
-554.537
-605.778
-652.644
-695.246
-734.171
-769.833
-802.22
-831.058
-856.428
-878.911
-898.962
-916.584
-931.36
-942.95
-951.293
-956.539
-958.874
-958.32
-954.977
-949.171
-941.445
-932.349
-922.31
-911.648
-900.548
-889.175
-877.651
-865.999
-854.185
-842.148
-829.851
-817.274
-804.413
-791.236
-777.682
-763.686
-749.17
-734.056
-718.256
-701.674
-684.255
-665.999
-646.943
-627.161
-606.733
-585.742
-564.289
-542.483
-520.434
-498.247
-476.025
-453.861
-431.86
-410.131
-388.788
-367.944
-347.691
-328.097
-309.217
-291.094
-273.761
-257.247
-241.566
-226.721
-212.717
-199.562
-187.261
-175.823
-165.244
-155.518
-146.631
-138.568
-131.312
-124.846
-119.151
-114.202
-109.975
-106.445
-103.585
-101.371
-99.771
-98.75
-98.273
-98.303
-98.8
-99.728
-101.045
-102.712
-104.689
-106.938
-109.421
-112.104
-114.95
-117.924
-120.995
-124.13
-127.302
-130.481
-133.641
-136.759
-139.811
-142.779
-145.643
-148.39
-151.004
-153.475
-155.794
-157.956
-159.957
-161.794
-163.467
-164.979
-166.333
-167.535
-168.591
-169.509
-170.299
-170.972
-171.538
-172.011
-172.404
-172.73
-173.003
-173.237
-173.445
-173.641
-173.838
-174.049
-174.285
-174.557
-174.876
-175.251
-175.691
-176.203
-176.793
-177.468
-178.231
-179.086
-180.034
-181.076
-182.21
-183.433
-184.743
-186.134
-187.6
-189.136
-190.736
-192.391
-194.095
-195.84
-197.619
-199.421
-201.239
-203.064
-204.886
-206.698
-208.489
-210.254
-211.984
-213.676
-215.325
-216.928
-218.483
-219.99
-221.45
-222.865
-224.235
-225.562
-226.848
-228.093
-229.301
-230.478
-231.627
-232.757
-233.876
-234.995
-236.126
-237.281
-238.465
-239.683
-240.939
-242.237
-243.584
-244.982
-246.432
-247.942
-249.522
-251.187
-252.959
-254.847
-256.852
-258.967
-261.185
-263.494
-265.884
-268.346
-270.856
-273.4
-275.972
-278.575
-281.227
-283.935
-286.684
-289.437
-292.149
-294.79
-297.349
-299.818
-302.181
-304.425
-306.548
-308.586
-310.615
-312.707
-314.911
-317.221
-319.615
-322.103
-324.653
-327.202
-329.623
-331.668
-333.113
-333.863
-333.885
-333.165
-331.905
-330.436
-329.209
-328.878
-329.931
-332.594
-336.857
-342.539
-349.079
-355.511
-360.692
-363.33
-362.489
-357.768
-349.219
-337.015
-321.585
-303.887
-285.055
-266.596
-249.663
-234.458
-220.872
-209.15
-200.815
-198.334
-203.434
-215.935
-232.329
-248.359
-262.964
-278.409
-302.998
-346.241
-412.092
-500.117
-600.769
-699.549
-785.063
-846.638
-878.812
-881.687
-854.463
-800.642
-728.806
-648.009
-573.013
-516.627
-482.386
-470.166
-469.214
-465.206
-451.628
-424.791
-392.07
-368.278
-361.477
-376.739
-411.929
-455.853
-503.354
-555.633
-615.49
-693.102
-793.956
-909.411
-1027.134
-1126.201
-1183.361
-1191.497
-1152.971
-1080.136
-993.101
-901.453
-804.371
-696.448
-572.459
-437.916
-310.001
-207.253
-140.254
-107.375
-96.365
-93.585
-90.679
-85.933
-81.963
-79.441
-76.389
-68.987
-52.054
-23.357
16.502
66.188
122.948
183.712
246.405
308.631
367.656
421.908
470.54
513.172
550.421
583.288
612.55
639.284
664.766
689.675
714.386
739.066
763.446
787.183
809.978
831.428
851.152
869.037
885.124
899.501
912.325
923.681
933.616
942.211
949.538
955.622
960.466
964.047
966.352
967.447
967.465
966.542
964.81
962.341
959.166
955.355
951.029
946.322
941.369
936.291
931.203
926.241
921.549
917.27
913.501
910.255
907.487
905.106
903.003
901.104
899.346
897.63
895.813
893.733
891.216
888.099
884.208
879.327
873.226
865.68
856.51
845.613
832.928
818.437
802.137
784.02
764.089
742.375
718.957
693.936
667.449
639.654
610.743
580.981
550.656
520.062
489.471
459.125
429.259
400.101
371.893
344.854
319.189
295.095
272.72
252.191
233.6
216.988
202.355
189.636
178.736
169.547
161.964
155.865
151.111
147.545
144.966
143.209
142.123
141.543
141.346
141.412
141.643
141.98
142.395
142.879
143.443
144.102
144.862
145.753
146.818
148.112
149.72
151.695
154.07
156.886
160.155
163.883
168.07
172.687
177.685
183.019
188.636
194.481
200.509
206.661
212.87
219.068
225.176
231.13
236.878
242.372
247.572
252.445
256.965
261.114
264.888
268.28
271.284
273.896
276.109
277.924
279.347
280.383
281.044
281.339
281.278
280.873
280.135
279.078
277.714
276.059
274.123
271.922
269.473
266.797
263.913
260.844
257.61
254.235
250.74
247.148
243.482
239.761
236.006
232.237
228.473
224.732
221.033
217.392
213.826
210.349
206.975
203.717
200.587
197.595
194.75
192.06
189.532
187.172
184.984
182.973
181.141
179.488
178.015
176.72
175.602
174.658
173.882
173.271
172.817
172.514
172.355
172.331
172.434
172.656
172.988
173.419
173.94
174.54
175.21
175.939
176.717
177.531
178.373
179.231
180.094
180.954
181.799
182.622
183.412
184.16
184.859
185.5
186.076
186.581
187.007
187.348
187.6
187.757
187.816
187.772
187.622
187.364
186.995
186.514
185.918
185.208
184.382
183.441
182.385
181.217
179.936
178.547
177.052
175.455
173.757
171.965
170.082
168.112
166.06
163.93
161.728
159.459
157.127
154.738
152.297
149.809
147.279
144.713
142.115
139.491
136.844
134.181
131.506
128.824
126.141
123.46
120.787
118.127
115.484
112.861
110.264
107.696
105.159
102.657
100.192
97.767
95.383
93.042
90.746
88.496
86.292
84.136
82.027
79.967
77.955
75.991
74.075
72.207
70.386
68.61
66.881
65.196
63.554
61.953
60.393
58.871
57.384
55.931
54.508
53.113
51.744
50.397
49.07
47.76
46.464
45.181
43.907
42.64
41.378
40.118
38.859
37.598
36.333
35.063
33.785
32.498
31.201
29.891
28.568
27.229
25.874
24.5
23.108
21.695
20.261
18.806
17.328
15.829
14.307
12.764
11.199
9.613
8.006
6.381
4.736
3.074
1.396
-0.298
-2.007
-3.728
-5.46
-7.202
-8.951
-10.707
-12.466
-14.227
-15.988
-17.746
-19.5
-21.245
-22.981
-24.703
-26.41
-28.097
-29.762
-31.401
-33.012
-34.592
-36.137
-37.646
-39.115
-40.543
-41.926
-43.263
-44.551
-45.789
-46.975
-48.106
-49.183
-50.204
-51.168
-52.077
-52.931
-53.73
-54.476
-55.171
-55.817
-56.417
-56.974
-57.491
-57.973
-58.424
-58.85
-59.256
-59.649
-60.035
-60.421
-60.816
-61.227
-61.662
-62.129
-62.636
-63.191
-63.802
-64.477
-65.225
-66.054
-66.97
-67.981
-69.095
-70.318
-71.656
-73.112
-74.691
-76.395
-78.226
-80.186
-82.273
-84.486
-86.822
-89.279
-91.853
-94.536
-97.323
-100.205
-103.171
-106.209
-109.306
-112.444
-115.604
-118.769
-121.919
-125.032
-128.09
-131.071
-133.958
-136.733
-139.378
-141.877
-144.21
-146.357
-148.3
-150.025
-151.517
-152.763
-153.751
-154.471
-154.918
-155.093
-154.994
-154.613
-153.937
-152.945
-151.621
-149.966
-147.978
-145.659
-143.018
-140.069
-136.844
-133.4
-129.789
-126.061
-122.26
-118.417
-114.583
-110.831
-107.236
-103.887
-100.852
-98.159
-95.85
-93.961
-92.502
-91.474
-90.827
-90.429
-90.164
-89.909
-89.53
-88.954
-88.034
-86.527
-84.263
-81.116
-77.119
-72.59
-67.812
-62.955
-58.36
-54.467
-51.626
-50.186
-49.99
-50.1
-49.696
-48.221
-44.845
-38.791
-29.792
-17.665
-4.018
7.061
13.163
12.889
6.031
-4.651
-21.018
-48.662
-93.837
-164.66
-261.66
-378.385
-504.148
-622.622
-722.258
-795.6
-839.171
-858.691
-858.933
-843.852
-818.772
-781.162
-726.252
-651.734
-551.625
-425.535
-283.974
-138.705
-7.698
89.736
148.534
170.058
162.606
142.205
117.069
90.575
64.011
34.243
1.98
-29
-55.178
-72.805
-80.737
-80.192
-72.854
-61.095
-47.264
-33.35
-21.554
-13.339
-9.18
-9.116
-12.637
-18.802
-26.633
-34.989
-42.52
-48.415
-52.397
-54.385
-54.642
-53.539
-51.4
-48.721
-46.11
-43.914
-42.294
-41.303
-40.849
-40.88
-41.397
-42.332
-43.596
-45.126
-46.87
-48.808
-50.944
-53.243
-55.642
-58.07
-60.448
-62.729
-64.893
-66.927
-68.83
-70.603
-72.253
-73.803
-75.284
-76.722
-78.141
-79.563
-81.006
-82.502
-84.083
-85.785
-87.644
-89.69
-91.947
-94.439
-97.187
-100.207
-103.514
-107.118
-111.025
-115.244
-119.781
-124.642
-129.832
-135.352
-141.199
-147.371
-153.86
-160.658
-167.751
-175.123
-182.757
-190.632
-198.723
-207.005
-215.451
-224.029
-232.707
-241.452
-250.227
-258.996
-267.72
-276.361
-284.878
-293.232
-301.384
-309.293
-316.921
-324.231
-331.185
-337.749
-343.89
-349.575
-354.775
-359.461
-363.609
-367.194
-370.196
-372.596
-374.378
-375.528
-376.038
-375.899
-375.109
-373.666
-371.573
-368.835
-365.46
-361.461
-356.852
-351.649
-345.874
-339.548
-332.696
-325.348
-317.531
-309.277
-300.619
-291.592
-282.23
-272.569
-262.646
-252.499
-242.163
-231.678
-221.079
-210.405
-199.69
-188.973
-178.287
-167.667
-157.147
-146.758
-136.532
-126.498
-116.685
-107.12
-97.826
-88.825
-80.137
-71.78
-63.769
-56.117
-48.836
-41.932
-35.413
-29.283
-23.545
-18.199
-13.243
-8.67
-4.474
-0.646
2.821
5.935
8.706
11.146
13.267
15.084
16.609
17.859
18.853
19.603
20.13
20.453
20.587
20.555
20.368
20.027
19.563
19.022
18.444
17.876
17.325
16.762
16.202
15.687
15.207
14.729
14.166
13.418
12.561
11.737
11.037
10.469
10.022
9.884
10.182
10.848
11.753
12.456
13.393
16.366
21.227
26.361
28.645
22.236
7.609
-9.208
-21.963
-21.865
-8.618
9.454
26.119
34.563
33.433
28.676
23.655
20.518
20.303
20.823
21.04
21.224
21.282
21.521
22.198
23.132
24.119
25.139
26.13
26.981
27.744
28.484
29.196
29.919
30.686
31.472
32.288
33.16
34.073
35.014
35.978
36.951
37.934
38.938
39.963
41.009
42.078
43.167
44.276
45.405
46.554
47.722
48.908
50.11
51.326
52.556
53.798
55.052
56.313
57.577
58.839
60.097
61.346
62.583
63.806
65.01
66.191
67.348
68.476
69.574
70.64
71.671
72.664
73.62
74.535
75.41
76.244
77.036
77.784
78.491
79.154
79.777
80.359
80.902
81.408
81.879
82.319
82.73
83.115
83.477
83.82
84.147
84.463
84.77
85.074
85.378
85.688
86.007
86.34
86.692
87.066
87.467
87.897
88.36
88.859
89.397
89.975
90.595
91.259
91.968
92.722
93.522
94.367
95.255
96.185
97.153
98.158
99.194
100.259
101.347
102.455
103.578
104.71
105.848
106.985
108.115
109.233
110.331
111.403
112.441
113.436
114.381
115.269
116.093
116.845
117.519
118.107
118.603
119.002
119.298
119.484
119.556
119.507
119.335
119.039
118.617
118.07
117.397
116.599
115.678
114.638
113.483
112.217
110.84
109.359
107.78
106.113
104.371
102.567
100.712
98.82
96.904
94.986
93.086
91.226
89.421
87.689
86.045
84.509
83.104
81.846
80.745
79.806
79.033
78.427
77.995
77.743
77.684
77.812
78.114
78.578
79.182
79.93
80.855
81.969
83.275
84.78
86.462
88.362
90.611
93.204
96.02
98.931
101.721
104.344
107.014
109.757
112.384
114.995
117.861
121.378
126.237
132.586
139.845
147.632
155.776
163.683
170.607
175.547
176.995
174.354
168.204
159.166
147.962
135.822
124.091
114.42
109.029
109.164
114.794
125.472
140.184
157.397
175.514
192.715
206.785
216.225
220.577
220.1
215.915
209.579
202.582
196.372
192.472
191.828
194.363
198.951
203.452
204.987
200.53
187.093
161.287
121.214
67.531
1.767
-73.455
-157.611
-253.636
-360.642
-472.832
-576.985
-652.655
-686.464
-674.197
-622.025
-546.822
-461.037
-371.571
-281.199
-186.968
-89.715
5.596
93.58
167.837
224.744
264.43
288.118
297.759
295.585
283.826
265.303
243.288
220.663
199.228
180.029
163.876
151.645
144.035
140.964
141.609
144.88
150.004
156.538
163.876
170.944
176.621
180.331
182.049
182.143
181.025
178.937
176.251
173.66
171.819
171.081
171.513
172.898
174.903
177.274
179.74
181.945
183.634
184.677
185.019
184.721
183.88
182.561
180.838
178.799
176.491
173.948
171.213
168.315
165.306
162.258
159.219
156.221
153.288
150.426
147.635
144.915
142.247
139.6
136.952
134.287
131.593
128.861
126.073
123.205
120.235
117.135
113.882
110.455
106.833
102.996
98.929
94.622
90.066
85.255
80.183
74.84
69.222
63.32
57.133
50.658
43.896
36.848
29.522
21.925
14.069
5.969
-2.359
-10.898
-19.625
-28.518
-37.551
-46.697
-55.927
-65.21
-74.513
-83.802
-93.04
-102.192
-111.219
-120.085
-128.751
-137.179
-145.331
-153.17
-160.66
-167.765
-174.452
-180.687
-186.441
-191.684
-196.388
-200.53
-204.086
-207.036
-209.364
-211.055
-212.097
-212.484
-212.211
-211.275
-209.68
-207.43
-204.533
-201.002
-196.851
-192.098
-186.763
-180.871
-174.447
-167.52
-160.121
-152.285
-144.046
-135.441
-126.509
-117.289
-107.823
-98.151
-88.315
-78.358
-68.322
-58.249
-48.181
-38.158
-28.223
-18.413
-8.768
0.675
9.883
18.821
27.458
35.765
43.715
51.284
58.451
65.195
71.5
77.352
82.74
87.653
92.088
96.039
99.506
102.492
105
107.037
108.611
109.735
110.421
110.683
110.538
110.004
109.1
107.846
106.265
104.38
102.213
99.788
97.131
94.265
91.216
88.007
84.663
81.207
77.663
74.053
70.398
66.719
63.038
59.372
55.74
52.158
48.643
45.209
41.868
38.634
35.515
32.522
29.661
26.94
24.364
21.936
19.661
17.539
15.571
13.757
12.095
10.582
9.217
7.994
6.909
5.957
5.133
4.431
3.844
3.368
2.996
2.721
2.537
2.437
2.415
2.464
2.577
2.747
2.969
3.236
3.542
3.88
4.246
4.634
5.038
5.455
5.88
6.309
6.738
7.163
7.583
7.994
8.395
8.783
9.158
9.517
9.862
10.189
10.5
10.793
11.067
11.323
11.56
11.776
11.972
12.148
12.303
12.437
12.55
12.643
12.717
12.772
12.808
12.828
12.831
12.82
12.794
12.756
12.707
12.648
12.579
12.504
12.422
12.335
12.245
12.151
12.056
11.96
11.863
11.767
11.673
11.58
11.491
11.407
11.328
11.257
11.194
11.142
11.101
11.072
11.057
11.056
11.068
11.094
11.135
11.188
11.254
11.331
11.419
11.515
11.617
11.725
11.835
11.944
12.05
12.149
12.237
12.312
12.369
12.404
12.413
12.391
12.334
12.237
12.097
11.907
11.662
11.357
10.986
10.545
10.027
9.429
8.745
7.971
7.105
6.145
5.087
3.932
2.677
1.322
-0.131
-1.681
-3.327
-5.066
-6.892
-8.801
-10.786
-12.839
-14.95
-17.108
-19.3
-21.513
-23.734
-25.945
-28.128
-30.263
-32.331
-34.315
-36.2
-37.968
-39.602
-41.084
-42.398
-43.532
-44.474
-45.212
-45.731
-46.017
-46.057
-45.852
-45.407
-44.731
-43.823
-42.676
-41.276
-39.614
-37.69
-35.507
-33.063
-30.355
-27.388
-24.184
-20.796
-17.289
-13.711
-10.094
-6.443
-2.753
0.939
4.561
8.023
11.224
14.113
16.687
18.89
20.637
21.929
22.819
23.55
24.539
26
27.958
30.389
33.182
36.265
39.686
43.13
45.854
47.355
47.324
45.75
43.079
39.569
35.145
30.175
25.599
22.453
21.948
24.87
31.116
40.554
53.267
68.786
85.932
102.692
115.958
122.599
120.329
106.988
80.15
37.897
-21.026
-95.273
-180.142
-270.916
-364.323
-460.38
-560.671
-662.094
-755.117
-824.399
-854.97
-840.699
-786.219
-705.027
-612.011
-516.625
-422.27
-327.825
-232.937
-140.912
-57.189
12.265
64.197
98.701
117.764
124.391
121.248
111.068
97.077
82.538
70.076
60.89
54.856
51.106
48.998
48.121
47.686
46.569
43.838
39.345
33.751
28.283
23.642
19.719
16.557
14.43
13.575
14.09
15.624
17.358
18.902
20.501
22.29
24.318
26.538
28.681
30.657
32.62
34.533
36.155
37.311
37.838
37.67
36.917
35.652
33.891
31.703
29.168
26.365
23.39
20.316
17.183
14.043
10.954
7.952
5.073
2.337
-0.254
-2.702
-5.025
-7.248
-9.407
-11.531
-13.645
-15.772
-17.932
-20.151
-22.455
-24.869
-27.416
-30.117
-32.997
-36.078
-39.38
-42.919
-46.708
-50.757
-55.074
-59.667
-64.544
-69.714
-75.179
-80.942
-87.005
-93.365
-100.017
-106.955
-114.165
-121.634
-129.342
-137.271
-145.397
-153.697
-162.142
-170.703
-179.349
-188.048
-196.764
-205.462
-214.104
-222.653
-231.069
-239.315
-247.35
-255.136
-262.633
-269.803
-276.609
-283.014
-288.983
-294.483
-299.482
-303.95
-307.861
-311.189
-313.914
-316.015
-317.477
-318.288
-318.437
-317.92
-316.734
-314.88
-312.362
-309.189
-305.372
-300.924
-295.864
-290.211
-283.988
-277.22
-269.936
-262.164
-253.938
-245.29
-236.255
-226.871
-217.174
-207.204
-197
-186.602
-176.049
-165.381
-154.64
-143.864
-133.092
-122.362
-111.711
-101.173
-90.784
-80.576
-70.577
-60.819
-51.325
-42.122
-33.233
-24.674
-16.462
-8.611
-1.131
5.966
12.67
18.98
24.899
30.417
35.528
40.23
44.519
48.412
51.932
55.078
57.848
60.287
62.433
64.32
65.995
67.45
68.656
69.657
70.521
71.141
71.387
71.367
71.091
70.552
70.089
68.853
66.016
62.803
59.594
58.621
62.552
68.463
74.41
77.492
73.715
66.63
59.248
53.632
53.188
55.493
58.089
60.432
61.025
60.741
60.703
60.699
60.872
61.147
61.296
61.466
61.775
62.182
62.674
63.262
63.941
64.696
65.52
66.386
67.264
68.159
69.078
70.012
70.956
71.907
72.858
73.808
74.757
75.7
76.632
77.551
78.454
79.34
80.206
81.053
81.879
82.683
83.467
84.23
84.973
85.696
86.4
87.086
87.755
88.408
89.048
89.676
90.294
90.904
91.509
92.112
92.715
93.32
93.93
94.546
95.172
95.809
96.458
97.122
97.801
98.497
99.21
99.941
100.689
101.455
102.238
103.035
103.846
104.668
105.499
106.336
107.177
108.019
108.86
109.696
110.524
111.342
112.146
112.931
113.695
114.432
115.138
115.809
116.438
117.021
117.554
118.03
118.446
118.796
119.075
119.279
119.403
119.443
119.395
119.254
119.018
118.684
118.25
117.713
117.074
116.332
115.486
114.537
113.486
112.335
111.084
109.736
108.293
106.759
105.137
103.433
101.651
99.799
97.886
95.923
93.921
91.893
89.852
87.812
85.788
83.796
81.848
79.956
78.134
76.394
74.75
73.218
71.813
70.548
69.435
68.487
67.714
67.129
66.737
66.539
66.538
66.737
67.148
67.791
68.681
69.826
71.231
72.895
74.811
76.971
79.351
81.908
84.596
87.368
90.188
93.029
95.856
98.628
101.285
103.752
105.967
107.884
109.469
110.702
111.579
112.115
112.364
112.413
112.363
112.334
112.432
112.758
113.413
114.464
116.033
118.315
121.444
125.454
130.215
135.427
140.804
146.16
151.194
155.402
158.306
159.608
159.568
158.897
158.188
157.893
158.38
160.155
164.021
169.345
173.362
173.278
166.313
153.283
139.459
126.241
112.405
91.523
49.901
-18.797
-116.122
-238.963
-371.555
-500.041
-610.164
-685.079
-721.112
-719.365
-685.945
-635.754
-576.201
-509.993
-438.281
-357.171
-267.106
-173.216
-80.947
3.136
73.801
129.771
171.386
198.257
211.505
211.056
196.961
175.08
151.043
131.336
121.785
119.435
121.47
124.99
126.425
129.326
134.263
138.419
140.118
133.266
116.917
97.16
79.211
70.521
73.166
80.903
88.573
90.793
86.04
79.101
73.213
70.447
71.309
73.476
75.7
77.799
79.574
81.258
82.819
83.892
84.354
84.234
83.55
82.34
80.646
78.533
76.084
73.389
70.521
67.502
64.376
61.209
58.057
54.982
52.023
49.192
46.498
43.946
41.524
39.213
36.983
34.792
32.607
30.401
28.145
25.813
23.377
20.803
18.064
15.132
11.98
8.587
4.932
0.998
-3.229
-7.759
-12.599
-17.753
-23.224
-29.015
-35.126
-41.556
-48.303
-55.36
-62.717
-70.365
-78.289
-86.471
-94.892
-103.526
-112.349
-121.332
-130.444
-139.651
-148.92
-158.213
-167.491
-176.717
-185.849
-194.846
-203.668
-212.272
-220.619
-228.668
-236.379
-243.714
-250.635
-257.108
-263.099
-268.576
-273.51
-277.874
-281.643
-284.796
-287.314
-289.18
-290.381
-290.907
-290.753
-289.913
-288.39
-286.188
-283.313
-279.777
-275.595
-270.784
-265.365
-259.362
-252.801
-245.712
-238.125
-230.074
-221.594
-212.722
-203.497
-193.958
-184.145
-174.099
-163.862
-153.474
-142.977
-132.412
-121.82
-111.24
-100.711
-90.272
-79.96
-69.81
-59.855
-50.129
-40.66
-31.478
-22.606
-14.07
-5.888
1.921
9.342
16.362
22.972
29.163
34.932
40.276
45.196
49.694
53.775
57.447
60.717
63.598
66.1
68.237
70.025
71.48
72.618
73.46
74.024
74.329
74.397
74.249
73.904
73.385
72.713
71.907
70.988
69.975
68.889
67.75
66.575
65.379
64.177
62.981
61.802
60.653
59.543
58.478
57.466
56.512
55.626
54.814
54.08
53.426
52.851
52.351
51.925
51.577
51.31
51.129
51.033
51.021
51.095
51.256
51.503
51.832
52.232
52.688
53.192
53.74
54.335
54.985
55.689
56.432
57.182
57.905
58.582
59.222
59.841
60.444
61.027
61.564
62.071
62.622
63.235
63.831
64.221
64.196
63.704
62.91
62.027
61.121
60.281
59.744
59.987
61.599
64.817
69.32
74.509
79.99
85.483
90.629
94.811
97.197
97.362
95.618
92.743
89.346
85.789
82.364
79.478
77.781
77.671
78.972
81.087
83.499
85.924
88.229
90.311
91.904
92.786
92.988
92.743
92.276
91.699
91.016
90.17
89.164
88.039
86.802
85.422
83.862
82.103
80.16
78.076
75.887
73.612
71.259
68.832
66.339
63.795
61.219
58.632
56.055
53.505
51.004
48.57
46.226
43.99
41.88
39.908
38.086
36.428
34.952
33.681
32.632
31.818
31.252
30.942
30.897
31.122
31.618
32.377
33.398
34.683
36.239
38.083
40.222
42.655
45.379
48.39
51.675
55.219
58.988
62.929
66.993
71.134
75.308
79.488
83.618
87.627
91.444
94.98
98.174
100.994
103.394
105.33
106.791
107.761
108.281
108.463
108.4
108.196
107.971
107.801
107.845
108.345
109.48
111.358
113.908
116.833
119.84
122.705
125.094
126.6
126.859
125.651
123.388
121.052
119.689
120.272
123.514
129.936
139.91
153.203
168.333
182.811
193.661
197.622
191.872
173.888
141.202
93.413
32.67
-38.477
-117.355
-203.696
-299.291
-401.421
-501.68
-586.427
-641.196
-659.432
-644.178
-605.553
-554.095
-495.242
-429.487
-354.234
-269.011
-176.964
-82.845
7.01
87.21
154.521
206.29
242.002
263.62
271.533
265.778
246.374
211.322
165.159
117.772
78.388
57.697
57.362
69.748
87.971
103.778
113.841
121.458
127.85
133.76
139.006
140.954
138.791
133.331
125.53
117.031
109.258
102.833
98.107
95.253
94.141
94.48
95.988
98.249
100.744
103.134
105.189
106.753
107.825
108.448
108.655
108.524
108.145
107.539
106.696
105.622
104.342
102.883
101.19
99.153
96.722
93.997
91.308
88.981
87.052
85.452
84.238
83.346
82.601
81.867
80.287
77.688
75.431
73.249
70.226
64.397
51.214
31.425
10.748
-4.755
-7.311
3.472
20.07
36.077
45.164
46.08
43.03
38.008
32.223
25.617
16.704
5.823
-6.303
-19.361
-32.589
-45.437
-57.515
-68.192
-77.563
-86.37
-95.037
-103.786
-112.672
-121.569
-130.557
-139.91
-149.585
-159.247
-168.613
-177.464
-185.758
-193.642
-201.161
-208.25
-214.872
-221.02
-226.714
-231.999
-236.864
-241.241
-245.068
-248.308
-250.952
-253.03
-254.565
-255.555
-255.98
-255.805
-255.007
-253.58
-251.527
-248.848
-245.538
-241.598
-237.047
-231.919
-226.252
-220.079
-213.427
-206.313
-198.763
-190.808
-182.486
-173.836
-164.897
-155.708
-146.307
-136.739
-127.046
-117.271
-107.451
-97.621
-87.813
-78.062
-68.402
-58.867
-49.488
-40.294
-31.313
-22.574
-14.103
-5.921
1.951
9.496
16.697
23.543
30.022
36.125
41.846
47.182
52.13
56.69
60.865
64.659
68.078
71.13
73.824
76.172
78.185
79.878
81.266
82.364
83.19
83.759
84.091
84.204
84.116
83.844
83.407
82.823
82.11
81.284
80.363
79.363
78.298
77.185
76.035
74.864
73.683
72.503
71.336
70.19
69.074
67.997
66.965
65.985
65.062
64.2
63.403
62.673
62.013
61.423
60.904
60.456
60.076
59.764
59.517
59.332
59.207
59.139
59.124
59.16
59.243
59.37
59.538
59.744
59.985
60.259
60.563
60.894
61.249
61.626
62.023
62.437
62.867
63.309
63.762
64.224
64.693
65.166
65.644
66.123
66.603
67.084
67.565
68.046
68.527
69.009
69.492
69.978
70.466
70.958
71.455
71.955
72.461
72.973
73.489
74.01
74.534
75.061
75.589
76.117
76.644
77.166
77.683
78.193
78.693
79.182
79.657
80.118
80.561
80.984
81.385
81.762
82.11
82.427
82.708
82.949
83.146
83.295
83.389
83.425
83.398
83.302
83.133
82.886
82.559
82.145
81.644
81.053
80.37
79.595
78.726
77.765
76.711
75.568
74.338
73.025
71.631
70.161
68.62
67.015
65.352
63.637
61.877
60.082
58.265
56.441
54.626
52.839
51.098
49.419
47.823
46.326
44.941
43.681
42.556
41.577
40.757
40.109
39.647
39.384
39.326
39.475
39.829
40.381
41.118
42.034
43.123
44.39
45.849
47.513
49.392
51.497
53.837
56.405
59.177
62.121
65.193
68.365
71.636
74.999
78.435
81.895
85.299
88.553
91.593
94.345
96.702
98.628
100.145
101.36
102.548
103.977
105.725
107.833
110.322
112.935
115.378
117.345
118.235
117.608
115.56
112.163
107.554
102.477
97.593
93.43
90.908
90.566
92.245
96.142
102.617
111.17
121.358
133.014
145.553
158.587
172.229
184.722
192.289
193.597
188.153
176.323
161.474
140.949
106.982
54.573
-20.761
-116.597
-221.909
-330.232
-438.557
-543.054
-641.854
-725.073
-775.61
-783.786
-747.058
-673.301
-580.511
-481.547
-383.054
-287.01
-190.611
-95.313
-6.306
71.113
131.483
172.988
196.807
204.408
198.268
181.8
158.589
132.786
108.576
88.424
73.626
65.256
63.433
67.289
75.47
85.741
95.398
102.923
107.599
108.76
106.417
101.002
93.092
83.893
74.916
67.147
61.197
57.325
55.479
55.583
57.198
60.767
66.591
73.037
79.429
83.227
81.572
77.421
72.715
70.496
74.965
82.426
89.765
94.842
94.117
90.165
85.605
81.057
78.14
75.997
73.518
70.984
68.304
65.595
63.118
60.73
58.312
55.902
53.497
51.059
48.564
45.992
43.327
40.568
37.718
34.741
31.601
28.28
24.756
21.014
17.039
12.815
8.328
3.571
-1.46
-6.77
-12.358
-18.229
-24.383
-30.821
-37.54
-44.537
-51.804
-59.336
-67.121
-75.146
-83.396
-91.851
-100.492
-109.301
-118.255
-127.331
-136.503
-145.746
-155.032
-164.332
-173.614
-182.842
-191.978
-200.986
-209.829
-218.473
-226.883
-235.025
-242.863
-250.366
-257.508
-264.256
-270.582
-276.449
-281.814
-286.646
-290.929
-294.651
-297.814
-300.417
-302.456
-303.938
-304.88
-305.292
-305.173
-304.507
-303.259
-301.41
-298.962
-295.93
-292.354
-288.254
-283.626
-278.471
-272.783
-266.556
-259.795
-252.483
-244.573
-236.064
-226.988
-217.421
-207.496
-197.313
-186.938
-176.429
-165.822
-155.168
-144.551
-134.038
-123.689
-113.578
-103.771
-94.374
-85.534
-77.335
-69.807
-62.925
-56.596
-50.758
-45.389
-40.463
-35.964
-31.868
-28.132
-24.737
-21.684
-18.949
-16.499
-14.266
-12.137
-10.053
-7.996
-5.985
-4.087
-2.342
-0.762
0.635
1.829
2.81
3.566
4.109
4.477
4.69
4.752
4.653
4.36
3.862
3.173
2.319
1.342
0.276
-0.856
-2.028
-3.206
-4.369
-5.498
-6.59
-7.658
-8.704
-9.725
-10.715
-11.664
-12.565
-13.42
-14.23
-14.998
-15.726
-16.419
-17.082
-17.723
-18.35
-18.965
-19.569
-20.159
-20.737
-21.301
-21.855
-22.397
-22.931
-23.456
-23.975
-24.492
-25.009
-25.529
-26.053
-26.581
-27.114
-27.653
-28.198
-28.749
-29.304
-29.863
-30.426
-30.992
-31.559
-32.127
-32.693
-33.258
-33.819
-34.376
-34.927
-35.471
-36.008
-36.535
-37.054
-37.563
-38.062
-38.552
-39.033
-39.505
-39.969
-40.426
-40.874
-41.315
-41.748
-42.172
-42.589
-42.996
-43.395
-43.783
-44.162
-44.53
-44.888
-45.234
-45.567
-45.887
-46.193
-46.484
-46.76
-47.02
-47.262
-47.486
-47.691
-47.877
-48.042
-48.185
-48.304
-48.4
-48.471
-48.515
-48.532
-48.521
-48.482
-48.414
-48.318
-48.193
-48.04
-47.861
-47.658
-47.431
-47.184
-46.92
-46.644
-46.359
-46.07
-45.782
-45.503
-45.236
-44.989
-44.768
-44.58
-44.43
-44.325
-44.272
-44.277
-44.347
-44.489
-44.709
-45.014
-45.41
-45.903
-46.499
-47.202
-48.016
-48.945
-49.993
-51.161
-52.452
-53.867
-55.407
-57.07
-58.856
-60.761
-62.78
-64.906
-67.132
-69.449
-71.843
-74.302
-76.811
-79.357
-81.923
-84.493
-87.048
-89.569
-92.034
-94.424
-96.72
-98.901
-100.946
-102.835
-104.547
-106.068
-107.382
-108.475
-109.332
-109.935
-110.273
-110.339
-110.132
-109.651
-108.897
-107.864
-106.549
-104.957
-103.091
-100.959
-98.571
-95.936
-93.073
-90.014
-86.8
-83.479
-80.092
-76.666
-73.214
-69.74
-66.254
-62.795
-59.41
-56.146
-53.058
-50.181
-47.545
-45.21
-43.149
-41.233
-39.276
-36.995
-34.119
-30.51
-26.09
-20.803
-14.865
-8.635
-2.516
2.842
6.861
9.13
9.275
7.145
3.111
-2.222
-8.281
-14.226
-19.319
-22.77
-23.531
-20.935
-14.975
-6.072
5.241
18.237
32.085
45.277
55.389
60.106
57.183
44.488
20.166
-17.81
-70.245
-135.707
-212.022
-297.484
-392.281
-497.671
-611.362
-725.059
-824.696
-895.716
-930.068
-928.166
-897.991
-848.552
-784.739
-707.73
-616.204
-510.76
-395.48
-276.896
-163.076
-60.406
26.432
95.012
146.047
179.08
193.195
187.886
161.531
118.781
69.568
23.743
-7.768
-22.162
-24.742
-20.616
-16.504
-14.531
-11.372
-6.093
1.781
11.124
18.319
21.878
21.811
18.394
12.894
6.462
-0.199
-6.125
-10.564
-13.143
-13.649
-12.356
-9.629
-5.796
-1.604
3.333
9.502
15.418
20.597
22.706
18.963
12.5
5.443
0.976
3.433
9.098
14.811
18.394
16.259
11.055
5.474
0.175
-3.177
-5.474
-7.89
-10.19
-12.523
-14.816
-16.841
-18.782
-20.796
-22.868
-25.01
-27.256
-29.627
-32.138
-34.817
-37.671
-40.698
-43.932
-47.401
-51.115
-55.088
-59.329
-63.844
-68.636
-73.712
-79.069
-84.708
-90.629
-96.829
-103.304
-110.046
-117.047
-124.295
-131.777
-139.477
-147.374
-155.447
-163.673
-172.027
-180.481
-189.007
-197.574
-206.15
-214.703
-223.198
-231.601
-239.876
-247.986
-255.897
-263.572
-270.975
-278.071
-284.828
-291.21
-297.188
-302.731
-307.811
-312.402
-316.479
-320.019
-323.003
-325.412
-327.232
-328.448
-329.05
-329.032
-328.388
-327.117
-325.22
-322.702
-319.57
-315.833
-311.504
-306.599
-301.134
-295.13
-288.609
-281.597
-274.119
-266.205
-257.885
-249.191
-240.157
-230.816
-221.203
-211.354
-201.304
-191.09
-180.747
-170.312
-159.818
-149.302
-138.797
-128.336
-117.952
-107.675
-97.535
-87.561
-77.779
-68.213
-58.887
-49.823
-41.038
-32.551
-24.377
-16.529
-9.018
-1.852
4.961
11.417
17.514
23.251
28.632
33.658
38.337
42.674
46.679
50.362
53.734
56.807
59.595
62.112
64.373
66.394
68.191
69.78
71.18
72.405
73.475
74.405
75.213
75.916
76.528
77.067
77.548
77.986
78.395
78.789
79.18
79.581
80.003
80.457
80.951
81.494
82.093
82.754
83.484
84.286
85.164
86.123
87.163
88.287
89.495
90.789
92.167
93.63
95.175
96.802
98.509
100.292
102.15
104.079
106.077
108.141
110.267
112.452
114.693
116.985
119.325
121.709
124.134
126.597
129.093
131.621
134.176
136.756
139.359
141.983
144.625
147.285
149.96
152.65
155.353
158.068
160.794
163.532
166.282
169.042
171.814
174.599
177.396
180.208
183.035
185.877
188.738
191.617
194.517
197.439
200.384
203.356
206.355
209.383
212.444
215.538
218.668
221.835
225.041
228.288
231.576
234.906
238.28
241.698
245.16
248.667
252.218
255.813
259.452
263.134
266.858
270.622
274.424
278.263
282.136
286.04
289.973
293.931
297.911
301.911
305.926
309.954
313.99
318.031
322.073
326.112
330.145
334.167
338.176
342.166
346.136
350.082
354.001
357.892
361.752
365.579
369.374
373.134
376.858
380.548
384.203
387.822
391.408
394.961
398.483
401.976
405.442
408.884
412.305
415.707
419.094
422.468
425.831
429.187
432.537
435.885
439.232
442.58
445.931
449.287
452.651
456.023
459.404
462.795
466.195
469.604
473.019
476.439
479.861
483.281
486.697
490.104
493.499
496.877
500.233
503.563
506.86
510.119
513.336
516.503
519.615
522.666
525.652
528.567
531.41
534.178
536.869
539.481
542.015
544.47
546.847
549.148
551.373
553.525
555.607
557.625
559.584
561.493
563.362
565.202
567.026
568.85
570.688
572.555
574.465
576.431
578.466
580.584
582.797
585.113
587.546
590.105
592.803
595.65
598.654
601.82
605.149
608.644
612.307
616.139
620.138
624.305
628.643
633.166
637.893
642.841
648.02
653.432
659.081
664.965
671.077
677.403
683.903
690.535
697.259
704.037
710.849
717.669
724.449
731.13
737.659
743.994
750.119
756.013
761.619
766.899
771.859
776.549
781.089
785.591
790.135
794.844
799.895
805.409
811.426
817.865
824.482
831.001
837.16
842.591
846.84
849.601
850.94
851.306
851.349
851.982
854.27
859.238
868.139
880.774
894.788
907.878
918.583
928.447
940.856
954.829
963.571
954.435
915.594
845.505
750.778
644.869
540.636
441.714
351.592
274.804
216.136
185.55
186.481
213.601
261.221
321.04
388.163
463.687
546.643
634.551
723.628
807.825
882.271
943.857
990.432
1020.689
1033.688
1029.051
1006.648
966.773
910.713
839.544
754.03
655.445
545.162
425.694
301.49
176.391
52.425
-70.343
-192.656
-312.474
-423.382
-515.468
-580.746
-616.163
-623.464
-608.39
-575.458
-528.789
-474.487
-420.866
-377.725
-350.531
-337.974
-332.612
-325.651
-313.547
-298.362
-285.546
-279.865
-282.282
-290.425
-300.956
-311.704
-321.63
-330.613
-338.808
-345.785
-351.161
-355.208
-358.407
-361.298
-364.429
-368.03
-372.253
-377.296
-383.249
-389.734
-395.885
-401.002
-404.717
-406.676
-406.487
-403.771
-397.995
-389.051
-377.56
-363.813
-347.574
-328.897
-308.188
-286.177
-264.221
-243.598
-224.856
-208.844
-196.936
-190.067
-188.647
-192.548
-200.728
-211.912
-225.43
-240.555
-256.261
-271.869
-286.971
-301.46
-315.891
-331.031
-347.218
-364.635
-383.447
-403.596
-425.021
-447.631
-471.091
-494.975
-519.002
-542.98
-566.771
-590.323
-613.527
-636.222
-658.248
-679.441
-699.639
-718.691
-736.491
-752.935
-767.921
-781.377
-793.229
-803.424
-811.937
-818.758
-823.874
-827.297
-829.083
-829.317
-828.157
-825.805
-822.442
-818.246
-813.353
-807.863
-801.883
-795.505
-788.8
-781.828
-774.626
-767.218
-759.637
-751.917
-744.061
-736.057
-727.854
-719.364
-710.527
-701.295
-691.64
-681.565
-671.076
-660.187
-648.935
-637.373
-625.557
-613.553
-601.414
-589.185
-576.926
-564.698
-552.577
-540.65
-528.986
-517.641
-506.664
-496.091
-485.95
-476.268
-467.053
-458.303
-450.015
-442.187
-434.814
-427.897
-421.429
-415.399
-409.791
-404.588
-399.771
-395.324
-391.228
-387.462
-384.005
-380.834
-377.929
-375.271
-372.837
-370.602
-368.542
-366.628
-364.835
-363.137
-361.508
-359.922
-358.354
-356.782
-355.182
-353.536
-351.825
-350.031
-348.138
-346.129
-343.993
-341.715
-339.285
-336.694
-333.931
-330.99
-327.866
-324.554
-321.05
-317.353
-313.462
-309.378
-305.102
-300.638
-295.99
-291.163
-286.162
-280.996
-275.671
-270.197
-264.582
-258.836
-252.968
-246.99
-240.912
-234.743
-228.494
-222.175
-215.797
-209.37
-202.905
-196.413
-189.905
-183.391
-176.885
-170.397
-163.938
-157.521
-151.158
-144.859
-138.635
-132.5
-126.462
-120.535
-114.727
-109.05
-103.514
-98.128
-92.902
-87.845
-82.965
-78.271
-73.771
-69.472
-65.382
-61.508
-57.857
-54.435
-51.25
-48.305
-45.608
-43.163
-40.974
-39.044
-37.376
-35.972
-34.832
-33.958
-33.347
-32.999
-32.912
-33.08
-33.502
-34.171
-35.082
-36.229
-37.606
-39.204
-41.016
-43.034
-45.25
-47.654
-50.237
-52.99
-55.903
-58.967
-62.169
-65.499
-68.947
-72.499
-76.145
-79.871
-83.666
-87.517
-91.411
-95.337
-99.281
-103.231
-107.175
-111.103
-115.001
-118.86
-122.67
-126.42
-130.101
-133.704
-137.221
-140.645
-143.967
-147.181
-150.28
-153.258
-156.108
-158.825
-161.403
-163.838
-166.124
-168.259
-170.239
-172.06
-173.721
-175.221
-176.557
-177.731
-178.743
-179.594
-180.286
-180.823
-181.208
-181.444
-181.538
-181.494
-181.318
-181.016
-180.594
-180.06
-179.419
-178.68
-177.849
-176.934
-175.942
-174.883
-173.763
-172.592
-171.377
-170.129
-168.854
-167.563
-166.263
-164.963
-163.671
-162.395
-161.142
-159.921
-158.737
-157.596
-156.505
-155.468
-154.488
-153.569
-152.713
-151.921
-151.195
-150.533
-149.937
-149.404
-148.933
-148.521
-148.168
-147.868
-147.619
-147.416
-147.255
-147.131
-147.038
-146.97
-146.92
-146.881
-146.848
-146.812
-146.768
-146.708
-146.626
-146.516
-146.37
-146.183
-145.949
-145.663
-145.32
-144.916
-144.448
-143.913
-143.309
-142.634
-141.888
-141.069
-140.179
-139.217
-138.186
-137.086
-135.919
-134.689
-133.398
-132.052
-130.656
-129.217
-127.743
-126.243
-124.727
-123.206
-121.689
-120.187
-118.71
-117.266
-115.862
-114.505
-113.203
-111.966
-110.801
-109.718
-108.721
-107.819
-107.021
-106.335
-105.771
-105.336
-105.033
-104.867
-104.848
-104.989
-105.303
-105.805
-106.501
-107.384
-108.453
-109.701
-111.118
-112.687
-114.372
-116.125
-117.906
-119.683
-121.429
-123.122
-124.728
-126.203
-127.51
-128.625
-129.546
-130.299
-130.911
-131.382
-131.701
-131.873
-131.953
-132.005
-132.103
-132.299
-132.56
-132.886
-133.412
-134.302
-135.628
-137.474
-139.693
-141.789
-143.597
-145.156
-145.953
-146.543
-147.6
-147.957
-147.921
-145.34
-136.261
-122.57
-106.53
-95.012
-98.107
-115.015
-139.157
-157.596
-154.835
-127.826
-83.126
-33.467
7.974
36.04
52.378
62.323
69.792
76.079
81.1
83.546
83.651
82.556
80.989
80.288
81.678
85.43
91.557
99.726
108.975
118.701
128.564
137.837
145.796
151.919
155.67
156.781
155.47
152.014
146.956
141.337
136.169
132.316
130.578
131.554
135.351
141.44
148.38
153.823
155.081
149.641
135.207
109.499
70.915
18.95
-45.556
-120.121
-201.185
-284.905
-367.021
-442.409
-506.252
-554.368
-583.068
-590.175
-574.84
-536.634
-477.407
-401.994
-313.555
-214.879
-108.05
8.25
128.261
240.403
333.978
396.542
426.332
433.165
424.577
408.136
385.58
350.23
303.731
253.692
208.797
181.414
173.573
179.496
195.747
217.254
244.407
278.923
315.611
348.484
368.841
371.838
361.263
342.67
324.928
312.029
300.147
285.839
263.864
235.704
211.512
199.495
207.343
235.045
273.188
313.68
348.581
374.045
392.469
404.75
411.449
412.593
406.244
392.421
373.054
350.597
327.805
306.943
289.58
277.102
270.835
271.486
278.373
289.714
303.756
318.82
333.506
346.486
355.802
359.481
356.732
347.973
334.117
316.372
295.731
273.346
251.284
231.941
217.128
207.609
203.359
204.179
209.762
219.156
230.929
242.409
251.044
256.72
259.194
259.934
261.808
264.033
265.175
261.413
246.491
219.041
182.892
146.853
120.641
108.712
108.961
113.814
117.575
119.041
117.757
113.902
105.268
86.754
58.637
26.051
-5.729
-30.315
-46.356
-57.646
-65.98
-73.09
-79.638
-84.149
-86.92
-88.871
-90.329
-92.179
-95.236
-99.654
-105.516
-112.562
-119.937
-127.042
-133.64
-139.47
-144.292
-147.954
-150.293
-151.335
-151.401
-150.705
-149.335
-147.38
-144.833
-141.695
-138.019
-133.807
-129.03
-123.729
-117.889
-111.428
-104.377
-96.809
-88.943
-81.206
-73.797
-66.635
-59.637
-52.728
-45.808
-38.763
-31.026
-21.457
-9.373
5.154
21.661
39.443
57.753
75.891
92.818
106.42
115.756
122.193
126.183
127.874
125.973
115.339
95.751
73.418
56.128
55.966
78.435
117.183
162.521
199.608
217.3
215.738
200.623
183.342
174.033
175.292
184.331
194.197
199.954
201.685
201.321
200.672
197.1
184.309
159.701
126.565
95.881
82.174
92.123
123.867
166.843
205.182
230.36
239.631
234.751
223.872
211.455
199.697
191.136
183.467
175.447
167.573
159.38
152.741
149.115
148.085
149.119
151.086
153.061
154.93
156.636
157.927
158.622
158.661
158.195
157.591
157.072
156.655
156.289
155.922
155.551
155.214
154.909
154.579
154.188
153.729
153.221
152.714
152.233
151.785
151.369
150.981
150.621
150.3
150.026
149.802
149.626
149.493
149.393
149.319
149.265
149.224
149.186
149.141
149.078
148.991
148.877
148.734
148.559
148.347
148.092
147.789
147.433
147.02
146.547
146.009
145.404
144.728
143.98
143.157
142.259
141.284
140.232
139.102
137.895
136.612
135.256
133.828
132.332
130.773
129.155
127.483
125.765
124.004
122.21
120.388
118.546
116.69
114.83
112.971
111.121
109.286
107.473
105.688
103.937
102.226
100.558
98.938
97.372
95.862
94.411
93.022
91.698
90.44
89.248
88.123
87.065
86.072
85.143
84.276
83.466
82.711
82.007
81.348
80.729
80.143
79.585
79.048
78.523
78.005
77.486
76.958
76.415
75.85
75.257
74.631
73.966
73.257
72.5
71.691
70.826
69.902
68.917
67.868
66.755
65.575
64.328
63.013
61.633
60.187
58.676
57.103
55.471
53.782
52.04
50.25
48.416
46.544
44.639
42.709
40.761
38.8
36.834
34.87
32.914
30.973
29.052
27.158
25.295
23.468
21.681
19.938
18.243
16.599
15.007
13.471
11.991
10.568
9.204
7.899
6.652
5.462
4.33
3.253
2.231
1.261
0.341
-0.532
-1.361
-2.151
-2.907
-3.632
-4.333
-5.015
-5.683
-6.344
-7.003
-7.664
-8.332
-9.012
-9.71
-10.433
-11.184
-11.967
-12.782
-13.638
-14.541
-15.487
-16.469
-17.485
-18.527
-19.604
-20.733
-21.904
-23.102
-24.361
-25.704
-27.151
-28.73
-30.417
-32.165
-33.998
-35.962
-37.93
-39.751
-41.511
-43.198
-44.782
-46.577
-47.72
-47.37
-46.719
-46.124
-47.779
-54.308
-62.791
-71.279
-76.872
-75.591
-70.938
-65.878
-62.445
-63.999
-68.121
-72.358
-76.158
-78.021
-78.802
-79.601
-80.194
-80.71
-81.066
-81.028
-80.743
-80.323
-79.725
-78.939
-77.975
-76.827
-75.487
-73.944
-72.172
-70.149
-67.883
-65.394
-62.693
-59.799
-56.735
-53.534
-50.224
-46.839
-43.408
-39.953
-36.515
-33.124
-29.811
-26.609
-23.521
-20.562
-17.762
-15.15
-12.751
-10.561
-8.495
-6.482
-4.529
-2.554
-0.432
2.062
5.349
9.644
14.901
21.096
28.205
36.074
44.474
52.727
59.611
64.315
66.539
66.168
63.354
58.274
51.269
43.538
37.006
33.493
34.333
39.92
50.282
64.559
80.254
95.596
108.843
119.108
128.134
132.75
125.194
97.435
41.21
-41.099
-138.52
-241.189
-342.203
-444.218
-550.935
-657.935
-751.909
-811.692
-823.615
-786.869
-712.338
-619.617
-522.29
-425.831
-330.761
-233.714
-135.434
-41.273
42.86
111.477
162.154
195.431
212.988
216.874
209.063
192.495
170.621
146.574
123.189
102.231
84.577
71.321
63.367
60.462
61.82
66.328
72.513
79.559
86.913
93.46
98.237
100.87
101.265
99.79
97.144
93.716
89.925
86.523
84.04
82.747
82.764
83.893
85.809
88.259
90.902
93.326
95.283
96.631
97.314
97.387
96.902
95.897
94.455
92.666
90.591
88.277
85.747
83.023
80.154
77.208
74.258
71.358
68.536
65.805
63.171
60.633
58.188
55.813
53.478
51.157
48.831
46.485
44.103
41.664
39.136
36.491
33.698
30.728
27.557
24.162
20.522
16.62
12.442
7.976
3.215
-1.851
-7.234
-12.941
-18.98
-25.353
-32.063
-39.108
-46.482
-54.177
-62.18
-70.476
-79.046
-87.871
-96.931
-106.202
-115.661
-125.281
-135.036
-144.897
-154.833
-164.809
-174.786
-184.724
-194.58
-204.312
-213.876
-223.229
-232.33
-241.138
-249.616
-257.727
-265.436
-272.706
-279.497
-285.766
-291.477
-296.602
-301.119
-305.016
-308.292
-310.954
-313.015
-314.495
-315.407
-315.755
-315.535
-314.727
-313.315
-311.281
-308.621
-305.35
-301.483
-297.031
-292.003
-286.402
-280.216
-273.42
-265.984
-257.865
-249.047
-239.538
-229.382
-218.661
-207.476
-195.947
-184.175
-172.239
-160.214
-148.168
-136.171
-124.297
-112.634
-101.283
-90.364
-80.013
-70.342
-61.425
-53.294
-45.928
-39.273
-33.243
-27.762
-22.776
-18.237
-14.115
-10.378
-6.998
-3.936
-1.149
1.431
3.898
6.328
8.784
11.29
13.839
16.393
18.889
21.274
23.505
25.553
27.405
29.057
30.513
31.782
32.877
33.796
34.517
35.023
35.302
35.358
35.216
34.908
34.472
33.954
33.412
32.891
32.431
32.048
31.731
31.479
31.317
31.23
31.17
31.104
30.995
30.842
30.717
30.641
30.535
30.47
30.711
31.31
32.183
33.361
34.554
36.292
40.262
46.122
52.314
56.306
53.299
43.524
31.805
22.928
23.693
34.602
49.197
62.479
69.076
67.983
64.015
60.145
58.378
59.344
61.076
62.664
64.175
65.533
67.03
68.741
70.398
71.916
73.339
74.659
75.861
76.954
77.948
78.867
79.754
80.624
81.454
82.236
82.974
83.668
84.319
84.929
85.493
86.013
86.494
86.94
87.354
87.74
88.101
88.44
88.76
89.065
89.357
89.639
89.916
90.191
90.465
90.74
91.018
91.299
91.588
91.889
92.2
92.518
92.853
93.216
93.612
94.054
94.533
95.036
95.577
96.17
96.785
97.399
97.993
98.539
99.06
99.6
100.132
100.607
101.146
101.894
102.759
103.748
104.885
105.849
107.491
110.637
114.096
117.502
118.671
114.987
109.332
103.626
100.73
104.573
111.667
119.05
124.691
125.24
123.078
120.62
118.396
117.875
118.193
118.237
118.21
117.963
117.562
117.225
116.799
116.16
115.342
114.347
113.158
111.774
110.201
108.44
106.512
104.44
102.215
99.828
97.285
94.589
91.744
88.757
85.632
82.375
78.997
75.51
71.923
68.25
64.503
60.692
56.831
52.937
49.024
45.113
41.226
37.388
33.62
29.949
26.395
22.981
19.726
16.644
13.747
11.047
8.557
6.296
4.278
2.516
1.016
-0.221
-1.199
-1.922
-2.397
-2.637
-2.655
-2.462
-2.058
-1.435
-0.569
0.557
1.945
3.582
5.451
7.546
9.887
12.494
15.358
18.453
21.713
25.08
28.534
32.008
35.342
38.345
40.871
42.907
44.645
46.337
48.085
50.02
52.413
55.325
58.489
61.557
63.717
64.738
65.812
66.549
65.555
60.768
48.071
28.547
8.358
-6.241
-7.053
7.149
29.082
52.522
70.397
80.096
86.159
90.985
96.114
102.417
108.219
113.687
119.237
123.082
123.655
119.363
111.09
103.265
96.423
87.155
67.185
23.673
-48.839
-149.601
-273.373
-408.099
-543.095
-667.292
-767.18
-833.515
-861.59
-852.66
-815.043
-758.079
-688.73
-609.701
-519.673
-415.055
-292.138
-155.117
-14.48
113.721
208.557
261.515
274.78
256.894
225.928
191.411
155.013
120.176
84.909
51.355
26.465
10.201
2.761
2.582
4.532
8.722
15.065
22.424
30.958
38.047
41.639
41.762
38.419
32.495
25.241
17.181
9.025
1.915
-3.58
-7.266
-9.097
-9.428
-8.659
-7.05
-5.017
-3.106
-1.626
-0.744
-0.536
-0.911
-1.824
-3.267
-5.168
-7.44
-10.015
-12.835
-15.866
-19.1
-22.491
-25.971
-29.463
-32.888
-36.193
-39.351
-42.342
-45.155
-47.786
-50.237
-52.527
-54.68
-56.715
-58.65
-60.497
-62.272
-63.997
-65.7
-67.405
-69.143
-70.937
-72.806
-74.77
-76.845
-79.046
-81.386
-83.874
-86.518
-89.329
-92.314
-95.485
-98.85
-102.414
-106.182
-110.157
-114.34
-118.729
-123.321
-128.109
-133.085
-138.237
-143.554
-149.021
-154.621
-160.335
-166.143
-172.021
-177.945
-183.888
-189.823
-195.721
-201.552
-207.285
-212.888
-218.329
-223.576
-228.597
-233.36
-237.833
-241.987
-245.791
-249.218
-252.239
-254.83
-256.967
-258.628
-259.792
-260.443
-260.565
-260.146
-259.177
-257.652
-255.565
-252.916
-249.708
-245.945
-241.634
-236.787
-231.416
-225.539
-219.173
-212.34
-205.064
-197.372
-189.291
-180.853
-172.087
-163.03
-153.713
-144.175
-134.45
-124.575
-114.589
-104.528
-94.43
-84.332
-74.269
-64.278
-54.392
-44.645
-35.069
-25.693
-16.545
-7.653
0.96
9.272
17.263
24.914
32.211
39.141
45.693
51.859
57.633
63.013
67.998
72.589
76.791
80.61
84.053
87.132
89.857
92.242
94.303
96.055
97.515
98.701
99.633
100.329
100.809
101.094
101.202
101.154
100.969
100.665
100.261
99.773
99.219
98.614
97.973
97.311
96.639
95.971
95.316
94.685
94.084
93.522
93.003
92.532
92.112
91.745
91.431
91.17
90.961
90.801
90.688
90.617
90.584
90.585
90.614
90.664
90.731
90.809
90.891
90.972
91.047
91.111
91.158
91.185
91.188
91.162
91.106
91.016
90.889
90.724
90.519
90.274
89.988
89.662
89.297
88.894
88.455
87.984
87.484
86.959
86.411
85.847
85.27
84.686
84.1
83.516
82.94
82.378
81.834
81.314
80.823
80.363
79.94
79.557
79.215
78.919
78.669
78.468
78.316
78.215
78.166
78.167
78.219
78.321
78.47
78.665
78.903
79.181
79.493
79.835
80.203
80.59
80.993
81.403
81.814
82.22
82.612
82.984
83.33
83.642
83.912
84.132
84.295
84.394
84.423
84.375
84.244
84.022
83.703
83.284
82.761
82.132
81.394
80.542
79.57
78.475
77.256
75.913
74.445
72.853
71.137
69.306
67.366
65.327
63.2
60.988
58.697
56.332
53.898
51.418
48.913
46.408
43.937
41.507
39.127
36.822
34.607
32.501
30.543
28.702
26.943
25.358
24.013
22.981
22.369
22.074
21.951
22.058
22.428
22.893
23.366
23.629
23.398
22.949
22.606
22.378
22.363
22.759
23.621
25.296
28.191
31.984
36.34
41.172
46.23
51.333
56.417
61.123
65.105
68.54
71.518
74.038
76.276
78.359
80.416
82.618
84.916
86.996
88.712
89.986
90.63
90.335
88.718
85.681
81.625
77.329
73.435
70.406
68.743
69.027
71.784
77.181
84.771
93.501
102.369
110.65
117.667
123.054
126.887
129.409
131.143
133.168
136.592
142.2
150.528
160.098
167.343
169.293
164.053
152.919
139.225
122.438
97.984
57.356
-8.307
-100.596
-214.881
-342.732
-472.957
-595.575
-700.33
-773.746
-804.696
-788.897
-729.622
-640.321
-537.963
-433.303
-331.982
-234.328
-137.612
-43.645
42.797
116.941
174.405
213.993
237.452
247.11
245.099
233.591
215.006
192.02
167.419
143.322
120.69
100.036
82.14
67.978
58.219
52.775
50.875
51.753
55.07
60.587
67.738
75.337
82.036
87.147
90.601
92.576
93.229
92.608
90.856
88.558
86.529
85.229
84.755
84.949
85.529
86.337
87.288
88.168
88.674
88.605
87.884
86.56
84.775
82.629
80.171
77.457
74.55
71.521
68.435
65.343
62.277
59.257
56.297
53.409
50.6
47.873
45.219
42.617
40.037
37.456
34.856
32.224
29.549
26.813
23.991
21.058
17.994
14.777
11.39
7.813
4.025
0.011
-4.24
-8.738
-13.485
-18.489
-23.757
-29.293
-35.102
-41.185
-47.54
-54.164
-61.052
-68.195
-75.582
-83.198
-91.026
-99.048
-107.242
-115.585
-124.054
-132.621
-141.259
-149.937
-158.624
-167.287
-175.891
-184.402
-192.783
-200.998
-209.01
-216.783
-224.281
-231.467
-238.307
-244.769
-250.819
-256.429
-261.568
-266.211
-270.333
-273.911
-276.927
-279.362
-281.201
-282.434
-283.05
-283.045
-282.415
-281.16
-279.283
-276.789
-273.688
-269.991
-265.711
-260.865
-255.474
-249.557
-243.14
-236.249
-228.913
-221.162
-213.028
-204.545
-195.745
-186.667
-177.344
-167.814
-158.113
-148.279
-138.349
-128.358
-118.344
-108.342
-98.386
-88.512
-78.752
-69.137
-59.698
-50.463
-41.459
-32.711
-24.243
-16.076
-8.23
-0.72
6.436
13.228
19.644
25.676
31.319
36.568
41.424
45.886
49.958
53.643
56.95
59.884
62.458
64.68
66.565
68.126
69.377
70.336
71.019
71.444
71.63
71.597
71.363
70.948
70.373
69.659
68.824
67.89
66.875
65.799
64.681
63.538
62.389
61.248
60.132
59.054
58.028
57.064
56.175
55.369
54.654
54.038
53.527
53.126
52.839
52.669
52.618
52.688
52.877
53.185
53.61
54.148
54.796
55.548
56.399
57.344
58.374
59.483
60.662
61.903
63.196
64.532
65.901
67.293
68.696
70.102
71.5
72.88
74.233
75.549
76.82
78.037
79.192
80.277
81.284
82.207
83.039
83.771
84.398
84.915
85.316
85.597
85.754
85.784
85.686
85.456
85.093
84.599
83.972
83.213
82.324
81.308
80.168
78.91
77.54
76.064
74.489
72.823
71.075
69.254
67.368
65.428
63.442
61.422
59.38
57.327
55.277
53.245
51.244
49.29
47.399
45.588
43.876
42.28
40.818
39.508
38.364
37.4
36.628
36.06
35.704
35.567
35.651
35.96
36.497
37.268
38.275
39.515
40.979
42.65
44.514
46.56
48.785
51.188
53.766
56.51
59.422
62.507
65.767
69.197
72.767
76.419
80.103
83.777
87.417
91.032
94.604
98.082
101.406
104.494
107.277
109.745
111.843
113.446
114.52
115.106
115.367
115.705
116.469
117.747
119.578
121.967
124.748
127.737
130.562
132.323
132.105
129.547
124.631
117.68
109.429
100.514
91.689
84.563
81.045
82.341
89.136
101.42
118.279
138.935
162.447
186.519
208.01
224.054
231.928
229.365
214.974
187.24
144.763
88.651
22.449
-51.428
-130.798
-214.605
-304.487
-395.489
-477.472
-541.214
-575.915
-579.412
-558.86
-519.927
-469.515
-411.478
-343.883
-267.555
-184.861
-98.565
-14.176
63.306
130.519
185.007
225.768
253.02
267.452
269.694
261.292
244.976
223.887
201.286
179.866
161.305
146.699
137.104
132.895
133.562
137.949
144.341
151.15
157.173
161.588
163.734
163.225
160.057
154.604
147.628
140.005
132.619
126.109
120.837
117.005
114.604
113.48
113.394
113.993
114.834
115.593
116.111
116.315
116.281
116.127
115.893
115.622
115.343
115.011
114.6
114.1
113.471
112.699
111.795
110.766
109.655
108.522
107.38
106.214
104.975
103.561
101.92
100.034
97.904
95.573
93.068
90.392
87.561
84.591
81.482
78.235
74.826
71.21
67.365
63.284
58.98
54.487
49.82
44.974
39.938
34.684
29.192
23.454
17.455
11.176
4.613
-2.235
-9.353
-16.713
-24.29
-32.066
-40.022
-48.145
-56.414
-64.801
-73.276
-81.808
-90.364
-98.909
-107.406
-115.815
-124.098
-132.219
-140.144
-147.843
-155.285
-162.438
-169.269
-175.749
-181.846
-187.534
-192.783
-197.566
-201.858
-205.636
-208.881
-211.574
-213.701
-215.25
-216.209
-216.573
-216.336
-215.497
-214.058
-212.023
-209.397
-206.191
-202.418
-198.092
-193.231
-187.855
-181.986
-175.65
-168.871
-161.679
-154.103
-146.174
-137.924
-129.387
-120.596
-111.587
-102.394
-93.053
-83.6
-74.072
-64.504
-54.931
-45.39
-35.913
-26.533
-17.284
-8.196
0.702
9.381
17.815
25.979
33.85
41.406
48.628
55.499
62.004
68.13
73.866
79.203
84.136
88.66
92.773
96.474
99.764
102.648
105.129
107.216
108.916
110.238
111.196
111.8
112.066
112.008
111.643
110.987
110.057
108.873
107.452
105.815
103.981
101.97
99.803
97.498
95.078
92.56
89.966
87.312
84.619
81.903
79.181
76.469
73.782
71.135
68.54
66.01
63.557
61.191
58.921
56.757
54.703
52.768
50.956
49.27
47.714
46.289
44.997
43.836
42.807
41.906
41.132
40.48
39.945
39.521
39.202
38.981
38.849
38.798
38.818
38.902
39.038
39.219
39.433
39.672
39.924
40.18
40.429
40.662
40.869
41.038
41.16
41.227
41.23
41.161
41.012
40.776
40.446
40.019
39.488
38.849
38.1
37.236
36.258
35.164
33.955
32.633
31.201
29.662
28.022
26.287
24.464
22.56
20.582
18.54
16.443
14.301
12.127
9.932
7.729
5.534
3.364
1.236
-0.831
-2.82
-4.713
-6.494
-8.146
-9.654
-11.008
-12.196
-13.207
-14.028
-14.649
-15.06
-15.255
-15.229
-14.976
-14.492
-13.778
-12.836
-11.675
-10.299
-8.708
-6.897
-4.855
-2.576
-0.066
2.669
5.624
8.783
12.13
15.628
19.221
22.859
26.495
30.087
33.6
36.979
40.161
43.075
45.651
47.84
49.611
50.934
51.79
52.182
52.121
51.674
50.953
50.067
49.144
48.301
47.617
47.228
47.335
48.082
49.546
51.658
54.14
56.734
59.275
61.509
63.076
63.647
63.028
61.489
59.838
58.876
59.077
60.855
64.776
71.25
80.282
90.123
97.157
98.019
90.805
76.984
59.725
40.372
16.881
-18.468
-74.696
-157.482
-266.099
-388.81
-507.719
-603.802
-662.823
-682.525
-669.435
-635.253
-590.332
-538.253
-478.644
-408.827
-328.439
-241.218
-152.172
-67.399
8.201
71.846
121.752
157.41
179.397
188.577
185.983
173.715
154.422
130.86
106.059
82.256
60.832
43.261
30.808
23.743
21.796
24.114
29.143
35.777
43.151
49.946
55.079
57.995
58.393
56.536
53.153
48.761
43.937
39.519
36.057
33.858
33.092
33.6
35.071
37.231
39.699
42.046
44.026
45.5
46.41
46.802
46.708
46.16
45.235
44.012
42.546
40.869
38.993
36.925
34.705
32.39
30.044
27.711
25.412
23.155
20.939
18.761
16.617
14.485
12.332
10.135
7.876
5.539
3.113
0.577
-2.095
-4.93
-7.953
-11.189
-14.657
-18.374
-22.356
-26.613
-31.153
-35.979
-41.092
-46.494
-52.184
-58.164
-64.43
-70.98
-77.806
-84.898
-92.246
-99.836
-107.649
-115.666
-123.865
-132.222
-140.712
-149.307
-157.977
-166.694
-175.424
-184.134
-192.791
-201.358
-209.798
-218.075
-226.151
-233.989
-241.551
-248.801
-255.703
-262.223
-268.327
-273.986
-279.17
-283.852
-288.007
-291.613
-294.65
-297.101
-298.953
-300.193
-300.815
-300.812
-300.183
-298.929
-297.056
-294.571
-291.484
-287.809
-283.561
-278.76
-273.427
-267.586
-261.262
-254.484
-247.284
-239.693
-231.746
-223.478
-214.927
-206.13
-197.126
-187.952
-178.649
-169.254
-159.804
-150.339
-140.893
-131.502
-122.2
-113.02
-103.993
-95.148
-86.511
-78.108
-69.961
-62.092
-54.519
-47.258
-40.323
-33.726
-27.477
-21.583
-16.049
-10.878
-6.072
-1.628
2.457
6.187
9.571
12.618
15.338
17.743
19.847
21.664
23.21
24.5
25.553
26.385
27.013
27.456
27.73
27.855
27.846
27.721
27.496
27.186
26.805
26.369
25.889
25.38
24.851
24.315
23.781
23.258
22.755
22.279
21.837
21.435
21.077
20.769
20.514
20.313
20.171
20.087
20.063
20.099
20.195
20.35
20.563
20.832
21.156
21.533
21.961
22.439
22.964
23.535
24.151
24.81
25.512
26.254
27.036
27.858
28.719
29.618
30.556
31.53
32.542
33.589
34.672
35.789
36.939
38.119
39.327
40.562
41.821
43.1
44.397
45.708
47.031
48.36
49.693
51.024
52.35
53.665
54.964
56.241
57.49
58.704
59.876
60.999
62.066
63.07
64.003
64.857
65.623
66.295
66.865
67.326
67.669
67.89
67.981
67.939
67.76
67.441
66.98
66.375
65.628
64.738
63.71
62.546
61.25
59.825
58.28
56.62
54.855
52.993
51.046
49.027
46.952
44.837
42.701
40.562
38.438
36.349
34.316
32.355
30.485
28.72
27.077
25.575
24.235
23.073
22.104
21.342
20.798
20.487
20.417
20.594
21.015
21.682
22.598
23.776
25.238
26.999
29.059
31.418
34.071
37.011
40.223
43.678
47.322
51.102
54.971
58.888
62.829
66.749
70.585
74.263
77.696
80.821
83.605
86.018
88.03
89.64
90.862
91.737
92.386
92.924
93.458
94.116
94.996
96.202
97.916
100.368
103.72
108.006
113.058
118.512
124.025
129.302
133.939
137.401
139.227
139.281
138.041
136.536
135.85
136.803
140.065
146.265
155.714
168.078
181.768
194.071
202.003
202.584
192.882
170.035
131.592
77.105
9.089
-68.97
-154.36
-247.263
-349.39
-458.086
-564.104
-651.017
-701.989
-708.645
-673.152
-608.701
-530.898
-448.438
-363.071
-270.305
-165.049
-51.585
58.748
153.29
219.956
257.224
272.42
272.564
265.531
254.585
238.169
217.41
193.989
170.242
150.173
135.749
127.576
125.821
129.317
136.361
145.269
154.368
162.301
168.299
171.813
172.516
170.508
166.295
160.703
154.681
149.159
144.709
141.631
140.09
140.046
141.337
143.693
146.702
149.851
152.759
155.224
157.133
158.49
159.309
159.573
159.313
158.614
157.552
156.184
154.548
152.648
150.499
148.158
145.686
143.163
140.663
138.226
135.877
133.633
131.501
129.485
127.581
125.767
124.01
122.287
120.579
118.869
117.141
115.369
113.522
111.569
109.481
107.235
104.812
102.19
99.353
96.286
92.979
89.423
85.614
81.547
77.215
72.614
67.741
62.595
57.179
51.496
45.553
39.358
32.923
26.262
19.392
12.331
5.101
-2.276
-9.776
-17.37
-25.033
-32.733
-40.439
-48.121
-55.743
-63.273
-70.675
-77.917
-84.962
-91.778
-98.33
-104.587
-110.517
-116.089
-121.277
-126.051
-130.389
-134.266
-137.662
-140.558
-142.937
-144.787
-146.095
-146.852
-147.054
-146.697
-145.78
-144.308
-142.284
-139.716
-136.616
-132.995
-128.871
-124.259
-119.18
-113.655
-107.71
-101.369
-94.66
-87.612
-80.256
-72.621
-64.741
-56.649
-48.376
-39.956
-31.423
-22.809
-14.147
-5.468
3.195
11.813
20.356
28.796
37.106
45.26
53.234
61.005
68.554
75.86
82.906
89.677
96.158
102.337
108.203
113.749
118.966
123.851
128.399
132.61
136.483
140.02
143.226
146.105
148.663
150.91
152.853
154.503
155.87
156.967
157.806
158.401
158.764
158.91
158.853
158.608
158.188
157.608
156.882
156.024
155.047
153.965
152.79
151.536
150.214
148.837
147.417
145.964
144.489
143.003
141.516
140.035
138.57
137.127
135.714
134.337
133.001
131.711
130.471
129.284
128.153
127.081
126.068
125.117
124.228
123.4
122.634
121.93
121.287
120.705
120.182
119.718
119.312
118.963
118.67
118.431
118.244
118.109
118.021
117.979
117.98
118.022
118.101
118.215
118.361
118.536
118.737
118.962
119.207
119.47
119.75
120.043
120.347
120.661
120.984
121.315
121.652
121.994
122.341
122.693
123.047
123.404
123.762
124.12
124.477
124.832
125.184
125.531
125.874
126.211
126.542
126.866
127.183
127.492
127.793
128.085
128.368
128.641
128.903
129.155
129.395
129.622
129.835
130.031
130.209
130.366
130.498
130.601
130.672
130.706
130.699
130.647
130.545
130.388
130.172
129.893
129.545
129.125
128.627
128.046
127.376
126.613
125.753
124.792
123.724
122.546
121.254
119.846
118.317
116.665
114.887
112.981
110.945
108.78
106.486
104.065
101.52
98.854
96.072
93.18
90.185
87.095
83.917
80.66
77.334
73.949
70.518
67.053
63.568
60.078
56.6
53.152
49.753
46.423
43.181
40.049
37.045
34.187
31.492
28.974
26.648
24.525
22.617
20.931
19.475
18.257
17.285
16.566
16.1
15.88
15.892
16.126
16.573
17.234
18.114
19.214
20.529
22.063
23.821
25.802
28.002
30.387
32.892
35.464
38.054
40.633
43.202
45.729
48.155
50.408
52.393
54.033
55.307
56.148
56.433
56.13
55.278
54.034
52.776
51.826
51.279
51.197
51.612
52.403
53.441
54.432
54.601
53.14
49.7
44.189
36.797
28.089
18.516
8.634
-0.175
-6.162
-8.079
-5.005
3.364
16.49
33.961
55.111
77.87
99.162
115.814
124.536
122.445
107.346
76.764
28.667
-36.128
-114.027
-201.105
-293.986
-392.664
-499.062
-610.104
-716.501
-802.709
-852.938
-859.957
-827.139
-767.31
-694.39
-617.326
-539.041
-457.284
-371.113
-283.271
-199.065
-125.109
-65.657
-21.752
7.197
22.667
26.013
18.815
3.998
-14.851
-34.148
-51.041
-64.129
-72.67
-75.917
-73.746
-67.015
-57.281
-46.777
-37.591
-30.673
-26.479
-25.476
-27.702
-32.853
-40.305
-48.804
-57.052
-64.387
-70.449
-74.965
-77.914
-79.308
-79.249
-78.171
-76.57
-74.761
-72.983
-71.407
-70.129
-69.262
-68.898
-69.04
-69.657
-70.728
-72.228
-74.144
-76.46
-79.142
-82.149
-85.438
-88.963
-92.675
-96.516
-100.43
-104.356
-108.251
-112.087
-115.846
-119.519
-123.109
-126.626
-130.088
-133.524
-136.957
-140.41
-143.905
-147.465
-151.112
-154.872
-158.767
-162.816
-167.04
-171.455
-176.077
-180.917
-185.984
-191.287
-196.828
-202.609
-208.632
-214.896
-221.401
-228.144
-235.121
-242.326
-249.75
-257.384
-265.215
-273.229
-281.407
-289.73
-298.174
-306.716
-315.33
-323.987
-332.659
-341.313
-349.918
-358.442
-366.85
-375.109
-383.184
-391.041
-398.648
-405.969
-412.974
-419.63
-425.907
-431.776
-437.208
-442.179
-446.663
-450.638
-454.083
-456.981
-459.315
-461.071
-462.237
-462.806
-462.77
-462.127
-460.876
-459.019
-456.561
-453.512
-449.881
-445.682
-440.931
-435.648
-429.852
-423.567
-416.819
-409.634
-402.04
-394.069
-385.75
-377.117
-368.202
-359.04
-349.665
-340.112
-330.415
-320.609
-310.728
-300.808
-290.882
-280.984
-271.144
-261.396
-251.768
-242.291
-232.99
-223.894
-215.025
-206.406
-198.057
-189.997
-182.243
-174.808
-167.704
-160.941
-154.527
-148.467
-142.764
-137.42
-132.433
-127.802
-123.522
-119.587
-115.99
-112.72
-109.767
-107.12
-104.765
-102.687
-100.872
-99.304
-97.965
-96.837
-95.904
-95.146
-94.546
-94.084
-93.743
-93.503
-93.347
-93.258
-93.217
-93.21
-93.221
-93.234
-93.236
-93.214
-93.157
-93.052
-92.892
-92.666
-92.366
-91.986
-91.52
-90.963
-90.31
-89.559
-88.709
-87.756
-86.703
-85.548
-84.293
-82.941
-81.493
-79.954
-78.327
-76.615
-74.825
-72.959
-71.024
-69.025
-66.966
-64.852
-62.689
-60.481
-58.232
-55.947
-53.63
-51.283
-48.912
-46.518
-44.103
-41.672
-39.225
-36.765
-34.292
-31.808
-29.314
-26.81
-24.296
-21.771
-19.235
-16.687
-14.124
-11.545
-8.948
-6.33
-3.689
-1.021
1.677
4.407
7.173
9.979
12.827
15.72
18.661
21.653
24.698
27.798
30.955
34.171
37.446
40.782
44.179
47.638
51.16
54.745
58.391
62.1
65.869
69.698
73.585
77.528
81.525
85.572
89.667
93.804
97.98
102.19
106.429
110.69
114.967
119.254
123.543
127.828
132.099
136.351
140.574
144.761
148.904
152.993
157.022
160.982
164.865
168.662
172.366
175.968
179.46
182.834
186.082
189.197
192.171
194.998
197.67
200.181
202.526
204.699
206.695
208.51
210.141
211.585
212.839
213.903
214.776
215.458
215.95
216.254
216.372
216.307
216.064
215.645
215.057
214.304
213.393
212.329
211.12
209.774
208.297
206.698
204.985
203.168
201.256
199.257
197.182
195.04
192.84
190.593
188.308
185.994
183.662
181.319
178.976
176.641
174.32
172.023
169.756
167.525
165.336
163.195
161.105
159.071
157.097
155.184
153.335
151.552
149.835
148.185
146.601
145.082
143.628
142.236
140.905
139.63
138.41
137.24
136.116
135.033
133.987
132.971
131.98
131.008
130.048
129.094
128.137
127.172
126.192
125.189
124.156
123.087
121.974
120.811
119.59
118.306
116.951
115.52
114.007
112.406
110.713
108.923
107.032
105.035
102.929
100.711
98.377
95.925
93.351
90.656
87.837
84.894
81.827
78.639
75.33
71.903
68.363
64.712
60.957
57.101
53.151
49.115
45.001
40.817
36.573
32.281
27.952
23.603
19.248
14.903
10.582
6.301
2.077
-2.072
-6.129
-10.078
-13.904
-17.592
-21.126
-24.488
-27.66
-30.628
-33.381
-35.908
-38.201
-40.249
-42.041
-43.575
-44.851
-45.873
-46.642
-47.151
-47.391
-47.363
-47.069
-46.519
-45.73
-44.718
-43.503
-42.124
-40.62
-39.038
-37.427
-35.827
-34.27
-32.785
-31.395
-30.134
-29.051
-28.205
-27.659
-27.457
-27.593
-28.03
-28.734
-29.691
-30.846
-32.036
-32.967
-33.35
-33.045
-32.138
-30.775
-28.875
-26.312
-23.217
-20.113
-17.777
-16.81
-17.242
-18.791
-21.593
-26.058
-32.28
-39.622
-46.742
-52.341
-55.751
-56.856
-55.285
-50.157
-41.951
-33.171
-26.729
-24.88
-26.754
-29.417
-33.46
-44.889
-73.766
-128.549
-211.076
-315.385
-431.753
-554.06
-676.776
-793.957
-896.255
-966.992
-995.435
-979.006
-924.468
-849.735
-766.133
-677.721
-584.165
-478.358
-362.39
-247.358
-144.441
-66.737
-17.796
9.379
21.472
26.012
26.201
19.927
7.541
-9.692
-29.57
-48.27
-63.976
-75.851
-82.817
-85.086
-83.382
-78.424
-71.384
-63.151
-54.15
-45.208
-37.601
-32.07
-28.846
-27.85
-28.561
-30.538
-33.536
-36.968
-39.941
-41.884
-42.535
-41.856
-40.103
-37.523
-34.28
-30.708
-27.262
-24.234
-21.783
-19.961
-18.682
-17.889
-17.566
-17.647
-18.046
-18.699
-19.548
-20.554
-21.708
-22.967
-24.267
-25.541
-26.715
-27.739
-28.588
-29.246
-29.702
-29.957
-30.019
-29.901
-29.626
-29.211
-28.67
-28.019
-27.271
-26.445
-25.568
-24.662
-23.757
-22.876
-22.039
-21.264
-20.57
-19.969
-19.475
-19.099
-18.849
-18.733
-18.761
-18.94
-19.279
-19.781
-20.449
-21.285
-22.285
-23.447
-24.765
-26.23
-27.831
-29.556
-31.392
-33.321
-35.327
-37.391
-39.493
-41.61
-43.721
-45.802
-47.829
-49.777
-51.621
-53.335
-54.894
-56.274
-57.448
-58.394
-59.087
-59.507
-59.631
-59.44
-58.917
-58.045
-56.811
-55.202
-53.209
-50.823
-48.04
-44.855
-41.269
-37.282
-32.899
-28.126
-22.971
-17.444
-11.559
-5.329
1.229
8.098
15.258
22.689
30.369
38.275
46.382
54.666
63.101
71.661
80.318
89.047
97.819
106.609
115.39
124.137
132.824
141.428
149.927
158.299
166.523
174.581
182.455
190.131
197.594
204.832
211.834
218.592
225.099
231.35
237.341
243.072
248.54
253.749
258.702
263.401
267.854
272.068
276.05
279.811
283.361
286.712
289.877
292.868
295.701
298.388
300.945
303.385
305.724
307.976
310.154
312.272
314.343
316.38
318.392
320.393
322.39
324.394
326.411
328.448
330.511
332.604
334.73
336.893
339.092
341.328
343.602
345.911
348.252
350.623
353.019
355.434
357.864
360.301
362.738
365.167
367.58
369.969
372.325
374.639
376.902
379.105
381.24
383.297
385.269
387.148
388.926
390.595
392.151
393.587
394.898
396.08
397.129
398.043
398.818
399.453
399.946
400.297
400.506
400.572
400.496
400.28
399.924
399.431
398.803
398.042
397.152
396.135
394.994
393.732
392.354
390.861
389.258
387.548
385.736
383.824
381.815
379.714
377.523
375.246
372.883
370.439
367.914
365.31
362.628
359.871
357.039
354.134
351.156
348.107
344.988
341.8
338.544
335.223
331.836
328.387
324.878
321.31
317.688
314.013
310.291
306.525
302.719
298.877
295.004
291.105
287.185
283.248
279.299
275.345
271.391
267.442
263.506
259.587
255.693
251.83
248.004
244.222
240.49
236.814
233.2
229.654
226.181
222.786
219.474
216.25
213.116
210.076
207.132
204.285
201.536
198.884
196.328
193.866
191.496
189.213
187.015
184.896
182.852
180.878
178.967
177.113
175.309
173.548
171.821
170.121
168.438
166.765
165.091
163.407
161.705
159.975
158.209
156.397
154.529
152.597
150.593
148.508
146.335
144.066
141.696
139.219
136.631
133.93
131.114
128.181
125.131
121.967
118.691
115.306
111.816
108.227
104.545
100.777
96.932
93.019
89.049
85.035
80.99
76.931
72.874
68.836
64.835
60.889
57.016
53.233
49.555
45.998
42.575
39.301
36.195
33.273
30.549
28.035
25.742
23.68
21.858
20.282
18.945
17.846
16.984
16.361
15.993
15.892
16.059
16.495
17.192
18.138
19.321
20.714
22.27
23.94
25.677
27.437
29.196
30.919
32.558
34.049
35.315
36.284
36.907
37.15
36.981
36.391
35.394
34.032
32.376
30.519
28.56
26.586
24.694
22.97
21.496
20.428
20.013
20.402
21.608
23.51
25.784
28.107
30.229
31.691
31.846
30.298
27.016
22.403
17.384
12.992
10.101
9.727
13.097
19.706
27.244
33.479
35.371
33.168
31.01
28.435
22.483
5.611
-36.456
-109.402
-212.857
-342.267
-481.121
-615.621
-732.704
-816.261
-861.809
-869.151
-842.943
-796.773
-738.294
-671.237
-597.455
-513.586
-420.431
-322.581
-224.849
-134.167
-55.484
9.189
58.365
91.826
110.385
114.895
107.039
89.923
66.951
41.405
16.627
-4.96
-21.922
-32.988
-37.621
-36.414
-30.501
-21.528
-11.612
-2.394
5.139
10.102
12.06
11.079
7.481
2.034
-4.115
-9.922
-14.736
-18.139
-19.996
-20.379
-19.41
-17.371
-14.729
-12.033
-9.703
-7.975
-6.944
-6.593
-6.912
-7.909
-9.554
-11.759
-14.439
-17.531
-20.993
-24.817
-28.982
-33.429
-38.085
-42.866
-47.691
-52.51
-57.297
-62.027
-66.688
-71.268
-75.762
-80.184
-84.559
-88.9
-93.22
-97.525
-101.823
-106.132
-110.475
-114.873
-119.349
-123.916
-128.588
-133.376
-138.291
-143.343
-148.536
-153.874
-159.357
-164.988
-170.771
-176.706
-182.797
-189.042
-195.437
-201.98
-208.665
-215.484
-222.427
-229.483
-236.636
-243.872
-251.173
-258.521
-265.896
-273.275
-280.634
-287.951
-295.198
-302.35
-309.378
-316.254
-322.95
-329.436
-335.684
-341.665
-347.35
-352.711
-357.72
-362.352
-366.582
-370.385
-373.739
-376.623
-379.019
-380.91
-382.28
-383.118
-383.412
-383.154
-382.339
-380.963
-379.027
-376.533
-373.485
-369.891
-365.76
-361.104
-355.939
-350.281
-344.15
-337.565
-330.553
-323.137
-315.344
-307.205
-298.749
-290.008
-281.014
-271.801
-262.404
-252.857
-243.194
-233.452
-223.664
-213.865
-204.09
-194.371
-184.742
-175.234
-165.877
-156.701
-147.733
-139.001
-130.529
-122.339
-114.453
-106.891
-99.671
-92.806
-86.312
-80.198
-74.475
-69.15
-64.226
-59.708
-55.595
-51.886
-48.577
-45.663
-43.137
-40.99
-39.211
-37.789
-36.711
-35.961
-35.526
-35.387
-35.529
-35.934
-36.583
-37.457
-38.537
-39.805
-41.24
-42.824
-44.537
-46.361
-48.276
-50.265
-52.309
-54.392
-56.496
-58.606
-60.706
-62.784
-64.825
-66.817
-68.75
-70.612
-72.396
-74.093
-75.697
-77.2
-78.599
-79.89
-81.068
-82.133
-83.082
-83.914
-84.631
-85.231
-85.717
-86.089
-86.351
-86.503
-86.55
-86.495
-86.34
-86.091
-85.75
-85.322
-84.812
-84.224
-83.562
-82.831
-82.035
-81.178
-80.264
-79.297
-78.28
-77.217
-76.11
-74.961
-73.774
-72.551
-71.293
-70.002
-68.679
-67.326
-65.943
-64.533
-63.095
-61.63
-60.139
-58.623
-57.083
-55.52
-53.934
-52.326
-50.698
-49.051
-47.385
-45.701
-44.002
-42.288
-40.562
-38.825
-37.081
-35.33
-33.578
-31.828
-30.082
-28.347
-26.626
-24.924
-23.248
-21.601
-19.99
-18.421
-16.9
-15.433
-14.026
-12.687
-11.422
-10.237
-9.139
-8.135
-7.232
-6.435
-5.75
-5.182
-4.738
-4.423
-4.24
-4.195
-4.291
-4.532
-4.921
-5.46
-6.149
-6.99
-7.981
-9.121
-10.408
-11.837
-13.405
-15.105
-16.931
-18.877
-20.935
-23.096
-25.351
-27.689
-30.099
-32.568
-35.08
-37.621
-40.173
-42.718
-45.238
-47.715
-50.131
-52.467
-54.706
-56.834
-58.835
-60.694
-62.394
-63.918
-65.252
-66.382
-67.296
-67.983
-68.435
-68.641
-68.599
-68.31
-67.775
-66.989
-65.944
-64.625
-63.019
-61.127
-58.95
-56.494
-53.767
-50.783
-47.57
-44.173
-40.64
-37.016
-33.339
-29.639
-25.955
-22.34
-18.86
-15.587
-12.583
-9.885
-7.514
-5.496
-3.835
-2.523
-1.525
-0.744
-0.065
0.618
1.422
2.453
3.798
5.607
8.089
11.373
15.51
20.403
25.752
31.285
36.802
41.985
46.408
49.721
51.669
52.43
52.768
53.371
54.759
57.456
61.837
68.137
76.437
85.955
94.739
100.748
101.944
96.081
81.093
54.843
15.263
-37.463
-100.556
-171.383
-247.773
-329.969
-419.721
-514.056
-604.208
-675.806
-714.188
-712.335
-672.483
-606.347
-526.85
-440.841
-351.304
-255.4
-151.391
-46.432
51.781
134.01
192.272
229.149
248.287
253.389
249.976
238.412
219.673
197.033
172.564
149.732
131.441
118.637
112.146
111.891
116.896
125.832
136.994
148.712
159.56
168.566
174.984
178.37
178.765
176.624
172.727
168.01
163.433
159.617
156.949
155.66
155.715
156.961
159.124
161.772
164.403
166.664
168.361
169.401
169.809
169.607
168.799
167.445
165.635
163.445
160.929
158.112
154.998
151.609
147.997
144.223
140.358
136.467
132.585
128.735
124.932
121.184
117.492
113.852
110.245
106.647
103.04
99.41
95.745
92.031
88.245
84.363
80.357
76.205
71.885
67.382
62.68
57.763
52.621
47.244
41.626
35.763
29.652
23.286
16.665
9.785
2.65
-4.737
-12.369
-20.238
-28.333
-36.639
-45.14
-53.815
-62.644
-71.603
-80.665
-89.801
-98.984
-108.179
-117.355
-126.477
-135.51
-144.416
-153.161
-161.706
-170.013
-178.047
-185.769
-193.143
-200.133
-206.705
-212.826
-218.464
-223.589
-228.173
-232.189
-235.615
-238.428
-240.61
-242.145
-243.02
-243.225
-242.753
-241.601
-239.768
-237.257
-234.074
-230.229
-225.734
-220.605
-214.858
-208.516
-201.601
-194.14
-186.159
-177.689
-168.762
-159.412
-149.672
-139.58
-129.172
-118.487
-107.564
-96.442
-85.161
-73.759
-62.277
-50.753
-39.226
-27.734
-16.312
-4.996
6.178
17.18
27.977
38.541
48.844
58.86
68.568
77.946
86.975
95.639
103.924
111.817
119.31
126.394
133.064
139.317
145.151
150.566
155.566
160.154
164.335
168.118
171.512
174.526
177.173
179.465
181.415
183.039
184.351
185.367
186.105
186.579
186.809
186.81
186.6
186.196
185.614
184.871
183.983
182.965
181.831
180.596
179.273
177.874
176.411
174.896
173.339
171.749
170.135
168.505
166.867
165.226
163.588
161.959
160.341
158.738
157.153
155.588
154.044
152.522
151.022
149.545
148.088
146.652
145.236
143.837
142.454
141.085
139.729
138.383
137.046
135.716
134.391
133.071
131.754
130.438
129.123
127.808
126.492
125.175
123.856
122.535
121.212
119.887
118.561
117.235
115.91
114.587
113.268
111.953
110.646
109.349
108.063
106.79
105.534
104.297
103.081
101.888
100.721
99.583
98.474
97.397
96.354
95.346
94.374
93.439
92.542
91.685
90.866
90.086
89.346
88.644
87.981
87.356
86.767
86.213
85.693
85.204
84.744
84.31
83.899
83.506
83.129
82.762
82.401
82.041
81.678
81.305
80.918
80.512
80.081
79.621
79.125
78.589
78.008
77.375
76.687
75.936
75.12
74.232
73.27
72.227
71.101
69.887
68.583
67.184
65.689
64.095
62.4
60.603
58.703
56.701
54.599
52.399
50.103
47.716
45.242
42.687
40.058
37.36
34.601
31.788
28.93
26.036
23.116
20.181
17.244
14.318
11.421
8.566
5.769
3.048
0.418
-2.105
-4.507
-6.776
-8.899
-10.866
-12.661
-14.271
-15.685
-16.892
-17.883
-18.65
-19.186
-19.484
-19.546
-19.377
-18.982
-18.36
-17.506
-16.405
-15.05
-13.443
-11.588
-9.49
-7.161
-4.615
-1.885
0.976
3.917
6.889
9.854
12.785
15.638
18.356
20.873
23.113
25.019
26.561
27.707
28.428
28.726
28.619
28.157
27.448
26.603
25.726
24.934
24.312
23.94
23.947
24.514
25.798
27.853
30.557
33.656
36.911
40.128
43.061
45.275
46.254
45.729
43.988
41.697
39.543
38.127
37.849
39.281
43.39
49.735
55.804
59.119
56.899
49.265
40.295
30.287
16.476
-7.428
-51.61
-119.994
-210.349
-318.083
-435.485
-554.093
-664.903
-753.935
-804.83
-808.959
-766.517
-688.447
-594.14
-496.991
-403.307
-313.845
-224.405
-135.57
-52.237
20.184
76.115
113.996
135.62
143.27
139.722
127.881
110.766
92.051
75.262
62.265
53.664
49.481
49.45
53.277
60.161
68.374
75.805
81.281
84.516
85.632
84.893
82.256
77.83
72.377
67.04
62.593
59.337
57.275
56.252
56.327
57.559
59.717
62.387
65.184
67.837
70.208
72.245
73.853
74.933
75.451
75.422
74.891
73.912
72.519
70.741
68.61
66.168
63.462
60.542
57.466
54.291
51.076
47.877
44.734
41.67
38.701
35.837
33.073
30.398
27.79
25.223
22.675
20.128
17.563
14.957
12.288
9.529
6.658
3.656
0.501
-2.822
-6.332
-10.041
-13.96
-18.098
-22.461
-27.052
-31.876
-36.937
-42.235
-47.773
-53.548
-59.556
-65.793
-72.252
-78.923
-85.792
-92.845
-100.065
-107.433
-114.926
-122.522
-130.197
-137.922
-145.67
-153.413
-161.118
-168.754
-176.289
-183.69
-190.923
-197.954
-204.751
-211.28
-217.508
-223.404
-228.936
-234.076
-238.793
-243.063
-246.858
-250.156
-252.935
-255.177
-256.862
-257.977
-258.51
-258.449
-257.789
-256.524
-254.654
-252.178
-249.1
-245.426
-241.166
-236.33
-230.931
-224.987
-218.515
-211.535
-204.071
-196.146
-187.787
-179.021
-169.879
-160.389
-150.585
-140.498
-130.162
-119.61
-108.878
-97.999
-87.008
-75.939
-64.826
-53.703
-42.604
-31.559
-20.601
-9.759
0.936
11.458
21.78
31.875
41.722
51.297
60.58
69.552
78.196
86.496
94.44
102.014
109.21
116.019
122.435
128.454
134.072
139.288
144.105
148.522
152.545
156.18
159.431
162.309
164.821
166.979
168.794
170.278
171.444
172.306
172.879
173.177
173.216
173.012
172.581
171.939
171.103
170.09
168.916
167.598
166.152
164.595
162.942
161.209
159.412
157.564
155.679
153.772
151.854
149.938
148.036
146.156
144.309
142.503
140.746
139.045
137.404
135.829
134.324
132.892
131.535
130.254
129.052
127.926
126.878
125.905
125.006
124.178
123.418
122.721
122.085
121.504
120.972
120.486
120.039
119.626
119.241
118.878
118.531
118.194
117.862
117.528
117.188
116.837
116.469
116.082
115.672
115.235
114.771
114.278
113.753
113.198
112.612
111.995
111.349
110.675
109.974
109.25
108.505
107.742
106.966
106.179
105.387
104.593
103.802
103.019
102.248
101.493
100.758
100.049
99.369
98.722
98.113
97.543
97.018
96.538
96.107
95.724
95.391
95.106
94.868
94.675
94.525
94.414
94.339
94.294
94.276
94.28
94.298
94.326
94.356
94.381
94.394
94.387
94.352
94.281
94.165
93.996
93.767
93.471
93.099
92.645
92.1
91.459
90.715
89.862
88.895
87.809
86.599
85.263
83.801
82.211
80.494
78.651
76.686
74.601
72.402
70.094
67.682
65.173
62.576
59.897
57.148
54.339
51.482
48.591
45.682
42.772
39.878
37.017
34.208
31.469
28.816
26.266
23.833
21.53
19.373
17.375
15.555
13.926
12.501
11.29
10.304
9.551
9.039
8.773
8.746
8.958
9.411
10.114
11.085
12.337
13.872
15.687
17.778
20.136
22.748
25.582
28.586
31.703
34.883
38.08
41.261
44.386
47.392
50.204
52.743
54.941
56.763
58.193
59.2
59.774
59.93
59.712
59.238
58.654
58.083
57.657
57.512
57.757
58.577
60.231
62.863
66.527
71.1
76.229
81.618
87.046
92.135
96.364
99.294
100.615
100.563
100.016
99.727
100.289
102.293
106.212
112.443
121.072
131.063
140.197
146.15
146.337
138.036
118.714
85.377
36.495
-26.486
-100.934
-183.807
-274.858
-377.701
-492.544
-614.111
-728.157
-812.333
-851.376
-839.767
-785.217
-708.334
-623.753
-538.223
-450.071
-349.338
-234.561
-114.474
-3.981
79.622
128.733
147.642
147.858
141.647
135.75
131.055
124.913
115.906
105.481
95.904
89.439
86.753
86.813
88.246
89.727
90.061
88.331
84.24
77.981
70.085
61.356
52.487
43.998
36.439
30.313
25.849
23.078
21.865
21.917
22.993
24.89
27.381
30.256
33.312
36.352
39.208
41.734
43.818
45.39
46.406
46.841
46.701
46.008
44.809
43.175
41.167
38.843
36.26
33.464
30.519
27.493
24.451
21.457
18.551
15.753
13.073
10.51
8.054
5.684
3.369
1.072
-1.24
-3.593
-6.011
-8.515
-11.13
-13.883
-16.8
-19.905
-23.217
-26.755
-30.534
-34.568
-38.866
-43.436
-48.28
-53.399
-58.796
-64.47
-70.422
-76.651
-83.152
-89.92
-96.947
-104.223
-111.735
-119.469
-127.405
-135.525
-143.804
-152.221
-160.748
-169.359
-178.026
-186.718
-195.406
-204.056
-212.638
-221.117
-229.46
-237.634
-245.606
-253.342
-260.808
-267.973
-274.806
-281.275
-287.353
-293.01
-298.221
-302.96
-307.206
-310.937
-314.135
-316.782
-318.865
-320.371
-321.292
-321.621
-321.354
-320.491
-319.034
-316.986
-314.354
-311.148
-307.381
-303.066
-298.219
-292.86
-287.009
-280.688
-273.922
-266.738
-259.162
-251.223
-242.952
-234.38
-225.54
-216.463
-207.184
-197.737
-188.155
-178.474
-168.727
-158.949
-149.173
-139.432
-129.759
-120.183
-110.736
-101.446
-92.34
-83.443
-74.78
-66.372
-58.239
-50.4
-42.87
-35.663
-28.793
-22.267
-16.095
-10.283
-4.833
0.252
4.972
9.329
13.326
16.971
20.269
23.231
25.866
28.188
30.209
31.945
33.411
34.625
35.604
36.368
36.934
37.324
37.556
37.649
37.624
37.5
37.295
37.027
36.714
36.373
36.018
35.665
35.327
35.018
34.748
34.527
34.367
34.274
34.256
34.319
34.468
34.707
35.038
35.462
35.98
36.592
37.294
38.085
38.961
39.916
40.946
42.045
43.205
44.419
45.681
46.982
48.314
49.671
51.043
52.424
53.808
55.186
56.555
57.907
59.238
60.545
61.822
63.067
64.277
65.449
66.582
67.675
68.727
69.737
70.705
71.633
72.521
73.371
74.184
74.963
75.71
76.429
77.121
77.791
78.443
79.079
79.704
80.32
80.933
81.544
82.157
82.774
83.396
84.026
84.663
85.308
85.96
86.617
87.279
87.941
88.603
89.259
89.908
90.544
91.163
91.76
92.33
92.867
93.366
93.821
94.226
94.574
94.861
95.079
95.224
95.288
95.267
95.153
94.942
94.628
94.205
93.67
93.016
92.241
91.343
90.32
89.17
87.894
86.492
84.968
83.323
81.563
79.692
77.717
75.643
73.48
71.236
68.921
66.548
64.127
61.675
59.206
56.736
54.283
51.863
49.493
47.192
44.976
42.86
40.859
38.989
37.266
35.707
34.329
33.147
32.176
31.428
30.913
30.643
30.623
30.853
31.332
32.061
33.047
34.303
35.839
37.659
39.762
42.141
44.785
47.681
50.801
54.105
57.548
61.086
64.682
68.311
71.94
75.527
79.015
82.331
85.409
88.201
90.667
92.778
94.519
95.892
96.933
97.71
98.299
98.792
99.273
99.826
100.557
101.564
102.979
105
107.757
111.278
115.473
120.059
124.679
129.028
132.707
135.178
136.057
135.182
132.809
129.776
127.06
125.515
125.868
128.735
134.609
143.408
153.965
164.302
170.993
170.376
160.522
138.846
104.887
60.42
4.341
-62.7
-141.556
-236.755
-346.471
-464.998
-581.071
-675.166
-733.03
-748.501
-723.781
-671.643
-603.874
-526.938
-443.399
-351.255
-250.593
-145.709
-42.858
50.537
129.089
190.23
233.14
258.544
267.75
262.557
245.91
221.409
192.939
164.189
137.852
115.747
99.117
88.671
84.321
85.232
89.824
96.204
102.848
108.535
112.45
114.027
112.973
109.443
104.029
97.604
91.045
85.188
80.536
77.364
75.823
75.82
77.157
79.523
82.475
85.521
88.308
90.633
92.398
93.608
94.265
94.36
93.942
93.091
91.886
90.382
88.609
86.576
84.305
81.848
79.269
76.64
74.023
71.453
68.946
66.512
64.153
61.867
59.642
57.451
55.261
53.048
50.793
48.477
46.084
43.586
40.957
38.166
35.188
32.004
28.596
24.949
21.048
16.885
12.451
7.744
2.762
-2.496
-8.032
-13.847
-19.939
-26.305
-32.937
-39.828
-46.968
-54.343
-61.939
-69.737
-77.719
-85.863
-94.145
-102.542
-111.028
-119.574
-128.153
-136.735
-145.288
-153.78
-162.179
-170.451
-178.564
-186.483
-194.175
-201.607
-208.746
-215.56
-222.019
-228.093
-233.753
-238.973
-243.728
-247.994
-251.751
-254.981
-257.665
-259.791
-261.346
-262.322
-262.713
-262.515
-261.726
-260.35
-258.389
-255.852
-252.747
-249.087
-244.885
-240.16
-234.928
-229.213
-223.036
-216.423
-209.401
-201.998
-194.246
-186.174
-177.815
-169.204
-160.373
-151.358
-142.194
-132.915
-123.556
-114.152
-104.736
-95.343
-86.004
-76.75
-67.613
-58.62
-49.8
-41.178
-32.778
-24.624
-16.735
-9.131
-1.828
5.159
11.816
18.134
24.104
29.718
34.973
39.865
44.395
48.563
52.373
55.831
58.942
61.715
64.16
66.288
68.112
69.645
70.901
71.896
72.645
73.165
73.473
73.586
73.521
73.296
72.928
72.434
71.831
71.137
70.366
69.535
68.658
67.75
66.824
65.894
64.972
64.069
63.196
62.362
61.576
60.846
60.18
59.582
59.059
58.615
58.254
57.98
57.795
57.7
57.697
57.787
57.969
58.243
58.608
59.062
59.603
60.23
60.939
61.728
62.594
63.532
64.54
65.614
66.749
67.941
69.187
70.481
71.819
73.196
74.609
76.051
77.519
79.007
80.509
82.021
83.537
85.051
86.556
88.047
89.517
90.96
92.37
93.74
95.063
96.333
97.544
98.69
99.764
100.759
101.67
102.49
103.213
103.835
104.35
104.753
105.042
105.21
105.256
105.177
104.969
104.63
104.158
103.553
102.814
101.942
100.938
99.804
98.544
97.161
95.662
94.053
92.34
90.53
88.631
86.653
84.606
82.499
80.345
78.156
75.947
73.735
71.536
69.368
67.247
65.188
63.208
61.324
59.552
57.906
56.398
55.038
53.843
52.826
52.001
51.375
50.956
50.744
50.745
50.963
51.398
52.046
52.902
53.958
55.212
56.674
58.346
60.223
62.298
64.555
66.979
69.554
72.259
75.052
77.894
80.743
83.556
86.299
88.935
91.424
93.735
95.829
97.661
99.187
100.36
101.141
101.535
101.575
101.271
100.637
99.742
98.754
97.975
97.706
98.094
99.123
100.783
103.166
106.221
109.567
112.392
113.734
113.014
110.159
105.263
98.322
89.625
80.079
71.375
65.647
64.42
68.301
77.402
91.472
109.516
129.551
148.475
162.15
166.607
158.651
135.419
95.956
41.644
-25.556
-103.492
-191.973
-292.158
-401.272
-510.254
-603.795
-666.083
-688.824
-673.932
-632.329
-575.788
-511.264
-440.91
-362.564
-275.955
-184.518
-93.123
-8.301
64.962
124.372
168.89
198.728
215.014
218.855
211.414
195.099
172.836
147.324
121.121
96.052
73.169
53.793
39.541
30.892
27.503
28.686
33.315
40.538
49.779
59.848
69.006
76.165
80.886
83.12
83.311
81.829
78.886
75.102
71.474
68.646
66.904
66.289
66.49
67.22
68.34
69.574
70.549
71.05
70.967
70.279
69.119
67.591
65.738
63.635
61.349
58.918
56.395
53.816
51.203
48.601
46.048
43.564
41.171
38.876
36.673
34.557
32.508
30.496
28.501
26.503
24.488
22.445
20.357
18.197
15.942
13.564
11.038
8.34
5.446
2.333
-1.018
-4.622
-8.488
-12.626
-17.044
-21.751
-26.757
-32.066
-37.684
-43.61
-49.845
-56.384
-63.222
-70.348
-77.747
-85.404
-93.299
-101.413
-109.722
-118.201
-126.823
-135.557
-144.373
-153.236
-162.112
-170.965
-179.755
-188.446
-196.996
-205.366
-213.518
-221.412
-229.008
-236.27
-243.162
-249.649
-255.698
-261.277
-266.359
-270.916
-274.924
-278.362
-281.212
-283.456
-285.084
-286.085
-286.454
-286.189
-285.289
-283.758
-281.603
-278.835
-275.464
-271.508
-266.985
-261.916
-256.324
-250.237
-243.682
-236.692
-229.297
-221.532
-213.432
-205.033
-196.373
-187.488
-178.417
-169.196
-159.862
-150.453
-141.005
-131.554
-122.132
-112.774
-103.511
-94.373
-85.389
-76.586
-67.987
-59.617
-51.495
-43.642
-36.074
-28.807
-21.852
-15.222
-8.924
-2.964
2.652
7.922
12.847
17.427
21.667
25.571
29.145
32.399
35.34
37.979
40.328
42.398
44.203
45.755
47.069
48.158
49.038
49.722
50.224
50.56
50.743
50.787
50.707
50.515
50.225
49.849
49.401
48.893
48.335
47.74
47.117
46.476
45.827
45.178
44.537
43.911
43.307
42.73
42.187
41.682
41.219
40.802
40.434
40.118
39.856
39.65
39.502
39.414
39.387
39.421
39.519
39.68
39.906
40.196
40.55
40.969
41.45
41.994
42.599
43.263
43.984
44.76
45.59
46.469
47.395
48.364
49.372
50.416
51.49
52.59
53.712
54.85
56
57.155
58.312
59.465
60.607
61.734
62.84
63.917
64.959
65.96
66.913
67.81
68.644
69.408
70.096
70.701
71.217
71.638
71.957
72.171
72.273
72.26
72.128
71.874
71.495
70.991
70.361
69.607
68.728
67.728
66.61
65.377
64.034
62.588
61.043
59.406
57.686
55.891
54.031
52.117
50.16
48.176
46.18
44.19
42.224
40.301
38.439
36.656
34.972
33.403
31.964
30.667
29.527
28.56
27.781
27.205
26.842
26.701
26.791
27.12
27.695
28.514
29.572
30.866
32.396
34.172
36.209
38.519
41.1
43.947
47.053
50.404
53.985
57.761
61.676
65.674
69.702
73.717
77.688
81.567
85.287
88.772
91.935
94.709
97.062
98.963
100.383
101.324
101.801
101.857
101.61
101.18
100.679
100.245
99.985
100.009
100.507
101.718
103.804
106.802
110.542
114.657
118.804
122.694
125.924
127.968
128.386
127.059
124.476
121.665
119.686
119.314
121.166
125.828
133.563
143.978
155.458
165.289
170.483
168.131
155.473
129.772
88.676
31.813
-38.449
-118.771
-206.219
-300.619
-403.295
-511.048
-614.83
-699.456
-749.451
-757.667
-726.619
-667.52
-592.819
-510.336
-422.918
-329.487
-230.525
-129.702
-32.871
53.072
123.574
176.67
212.006
230.849
234.858
225.914
207.181
182.373
155.068
128.849
106.311
88.827
77.417
72.458
73.314
78.8
87.229
96.432
104.689
111.027
114.717
115.472
113.451
109.034
102.976
96.415
90.416
85.635
82.471
81.034
81.215
82.869
85.74
89.389
93.291
97.053
100.398
103.193
105.435
107.107
108.186
108.691
108.678
108.204
107.33
106.094
104.504
102.587
100.381
97.941
95.338
92.639
89.899
87.156
84.431
81.735
79.078
76.459
73.869
71.287
68.689
66.052
63.361
60.601
57.754
54.799
51.708
48.46
45.036
41.418
37.595
33.554
29.285
24.78
20.035
15.048
9.819
4.348
-1.368
-7.328
-13.529
-19.968
-26.64
-33.537
-40.652
-47.973
-55.489
-63.183
-71.038
-79.037
-87.159
-95.382
-103.682
-112.033
-120.411
-128.786
-137.131
-145.415
-153.607
-161.677
-169.593
-177.323
-184.836
-192.101
-199.086
-205.761
-212.097
-218.065
-223.64
-228.794
-233.504
-237.747
-241.504
-244.755
-247.483
-249.675
-251.318
-252.402
-252.92
-252.869
-252.245
-251.051
-249.29
-246.968
-244.094
-240.679
-236.739
-232.289
-227.348
-221.938
-216.081
-209.804
-203.132
-196.095
-188.723
-181.047
-173.099
-164.913
-156.522
-147.961
-139.263
-130.463
-121.595
-112.692
-103.787
-94.914
-86.103
-77.385
-68.789
-60.344
-52.075
-44.008
-36.165
-28.569
-21.236
-14.186
-7.433
-0.99
5.133
10.926
16.383
21.5
26.274
30.705
34.795
38.546
41.965
45.057
47.832
50.299
52.469
54.352
55.964
57.316
58.424
59.302
59.966
60.432
60.716
60.834
60.801
60.635
60.351
59.964
59.488
58.939
58.329
57.672
56.98
56.264
55.536
54.805
54.081
53.371
52.684
52.027
51.404
50.822
50.286
49.798
49.363
48.983
48.66
48.398
48.196
48.056
47.978
47.963
48.009
48.117
48.285
48.512
48.797
49.138
49.534
49.984
50.485
51.037
51.637
52.284
52.976
53.71
54.486
55.3
56.15
57.034
57.95
58.895
59.865
60.858
61.87
62.896
63.932
64.974
66.015
67.051
68.076
69.085
70.071
71.029
71.953
72.838
73.676
74.463
75.191
75.854
76.447
76.962
77.393
77.734
77.979
78.123
78.16
78.085
77.894
77.581
77.144
76.58
75.885
75.057
74.096
73.002
71.774
70.417
68.933
67.326
65.601
63.764
61.824
59.788
57.664
55.46
53.188
50.857
48.479
46.065
43.63
41.189
38.757
36.354
33.998
31.707
29.5
27.396
25.413
23.568
21.874
20.346
18.998
17.843
16.897
16.174
15.683
15.435
15.437
15.695
16.215
16.998
18.034
19.32
20.854
22.642
24.698
27.034
29.651
32.543
35.708
39.136
42.812
46.708
50.773
54.95
59.19
63.447
67.688
71.873
75.936
79.797
83.373
86.585
89.389
91.759
93.652
95.05
95.959
96.404
96.488
96.347
96.095
95.859
95.767
95.923
96.53
97.861
100.101
103.339
107.444
112.057
116.865
121.614
125.911
129.243
131.141
131.357
130.337
129.138
128.828
130.31
134.265
141.247
151.637
165.196
180.327
194.309
204.022
206.103
197.448
175.176
136.535
80.972
11.003
-70.337
-160.442
-259.495
-369.811
-488.485
-605.282
-703.215
-764.595
-780.868
-755.164
-700.222
-629.704
-551.588
-467.936
-376.608
-277.496
-174.722
-74.708
15.327
90.236
147.804
187.862
211.575
220.825
217.978
205.836
187.561
166.637
146.126
128.017
113.634
103.431
97.308
95.23
96.664
100.366
105.04
109.615
113.142
115.346
116.216
115.406
112.9
109.109
104.532
99.884
95.953
93.048
91.261
90.801
91.644
93.653
96.659
100.242
103.883
107.255
110.16
112.465
114.166
115.248
115.677
115.502
114.814
113.687
112.193
110.363
108.208
105.754
103.059
100.194
97.241
94.275
91.341
88.466
85.666
82.948
80.312
77.748
75.233
72.732
70.221
67.681
65.098
62.455
59.73
56.896
53.922
50.785
47.462
43.936
40.192
36.215
31.994
27.521
22.792
17.806
12.559
7.048
1.272
-4.772
-11.08
-17.649
-24.471
-31.541
-38.847
-46.375
-54.109
-62.032
-70.121
-78.356
-86.711
-95.16
-103.674
-112.225
-120.782
-129.312
-137.783
-146.161
-154.413
-162.503
-170.399
-178.065
-185.469
-192.577
-199.357
-205.778
-211.811
-217.427
-222.6
-227.306
-231.522
-235.228
-238.405
-241.037
-243.112
-244.617
-245.546
-245.892
-245.653
-244.831
-243.427
-241.449
-238.906
-235.809
-232.174
-228.016
-223.355
-218.212
-212.611
-206.577
-200.137
-193.32
-186.156
-178.677
-170.915
-162.904
-154.677
-146.269
-137.715
-129.048
-120.304
-111.515
-102.715
-93.936
-85.21
-76.567
-68.037
-59.648
-51.428
-43.4
-35.588
-28.014
-20.698
-13.656
-6.905
-0.458
5.673
11.48
16.955
22.092
26.888
31.342
35.455
39.229
42.67
45.782
48.576
51.06
53.246
55.146
56.774
58.143
59.27
60.169
60.858
61.353
61.671
61.83
61.847
61.739
61.525
61.22
60.842
60.405
59.925
59.417
58.893
58.367
57.85
57.354
56.889
56.464
56.086
55.764
55.502
55.306
55.178
55.12
55.133
55.218
55.372
55.594
55.881
56.231
56.639
57.101
57.611
58.165
58.757
59.38
60.029
60.697
61.377
62.065
62.754
63.44
64.116
64.78
65.425
66.049
66.647
67.216
67.752
68.255
68.72
69.147
69.536
69.886
70.197
70.472
70.712
70.92
71.097
71.247
71.373
71.478
71.566
71.639
71.702
71.758
71.812
71.865
71.923
71.988
72.061
72.146
72.242
72.352
72.474
72.61
72.757
72.915
73.082
73.257
73.438
73.622
73.806
73.987
74.16
74.321
74.464
74.583
74.671
74.723
74.731
74.689
74.592
74.432
74.203
73.899
73.515
73.044
72.482
71.823
71.063
70.198
69.226
68.145
66.956
65.659
64.254
62.745
61.134
59.427
57.627
55.739
53.77
51.726
49.614
47.445
45.228
42.974
40.696
38.412
36.136
33.887
31.683
29.54
27.478
25.514
23.663
21.939
20.356
18.928
17.668
16.593
15.716
15.047
14.596
14.373
14.382
14.632
15.123
15.849
16.807
17.995
19.422
21.102
23.048
25.262
27.74
30.479
33.468
36.695
40.13
43.722
47.417
51.164
54.915
58.637
62.286
65.802
69.11
72.129
74.783
77.032
78.851
80.205
81.086
81.507
81.5
81.17
80.645
80.042
79.505
79.165
79.12
79.544
80.677
82.689
85.683
89.557
93.954
98.568
103.186
107.456
110.903
113.095
113.737
113.11
112.202
111.908
112.747
115.419
120.718
128.969
140.265
152.745
162.099
165.812
162.491
151.729
135.629
110.953
71.618
14.323
-65.578
-164.94
-276.121
-396.292
-516.794
-629.445
-725.468
-787.783
-808.119
-786.298
-728.247
-650.504
-565.017
-476.901
-388.327
-296.816
-202.638
-110.173
-24.541
48.96
107.592
151.193
180.811
198.283
204.898
201.873
191.292
175.515
156.862
137.35
118.17
100
83.985
71.545
63.313
59.224
58.743
61.05
65.562
71.911
79.177
85.834
90.867
93.832
94.654
93.714
91.361
87.805
83.636
79.815
76.955
75.342
75.05
75.795
77.31
79.414
81.734
83.829
85.433
86.397
86.682
86.387
85.575
84.275
82.574
80.549
78.259
75.753
73.055
70.178
67.166
64.076
60.965
57.88
54.842
51.859
48.935
46.062
43.23
40.419
37.602
34.76
31.88
28.947
25.948
22.867
19.682
16.37
12.91
9.281
5.466
1.45
-2.778
-7.226
-11.9
-16.804
-21.939
-27.309
-32.914
-38.757
-44.838
-51.155
-57.705
-64.481
-71.476
-78.679
-86.077
-93.654
-101.394
-109.276
-117.28
-125.382
-133.559
-141.783
-150.027
-158.262
-166.457
-174.582
-182.605
-190.493
-198.214
-205.735
-213.022
-220.045
-226.77
-233.167
-239.206
-244.857
-250.093
-254.887
-259.213
-263.05
-266.375
-269.169
-271.417
-273.102
-274.214
-274.742
-274.681
-274.027
-272.78
-270.942
-268.519
-265.518
-261.951
-257.833
-253.178
-248.007
-242.34
-236.202
-229.619
-222.617
-215.226
-207.478
-199.404
-191.037
-182.413
-173.566
-164.532
-155.348
-146.048
-136.671
-127.251
-117.825
-108.427
-99.091
-89.85
-80.736
-71.779
-63.008
-54.449
-46.127
-38.065
-30.284
-22.802
-15.636
-8.798
-2.299
3.85
9.644
15.078
20.151
24.862
29.214
33.21
36.857
40.162
43.135
45.786
48.128
50.173
51.938
53.437
54.686
55.703
56.505
57.109
57.534
57.796
57.914
57.904
57.785
57.572
57.281
56.928
56.526
56.09
55.632
55.162
54.692
54.229
53.783
53.361
52.967
52.608
52.288
52.009
51.774
51.585
51.441
51.343
51.291
51.282
51.314
51.385
51.493
51.635
51.807
52.007
52.231
52.477
52.742
53.023
53.318
53.622
53.936
54.256
54.581
54.91
55.241
55.576
55.913
56.253
56.597
56.945
57.299
57.661
58.03
58.41
58.803
59.21
59.633
60.076
60.541
61.031
61.547
62.093
62.669
63.279
63.922
64.6
65.314
66.062
66.846
67.665
68.516
69.399
70.312
71.252
72.215
73.199
74.199
75.209
76.226
77.244
78.257
79.259
80.246
81.209
82.144
83.044
83.901
84.71
85.462
86.15
86.767
87.304
87.754
88.111
88.368
88.519
88.556
88.476
88.274
87.945
87.486
86.894
86.167
85.302
84.299
83.16
81.886
80.479
78.942
77.28
75.499
73.605
71.605
69.507
67.319
65.049
62.708
60.307
57.857
55.373
52.867
50.359
47.866
45.408
43.002
40.668
38.426
36.295
34.292
32.43
30.725
29.19
27.841
26.691
25.756
25.045
24.567
24.332
24.345
24.614
25.138
25.91
26.927
28.187
29.696
31.467
33.509
35.82
38.395
41.228
44.308
47.619
51.13
54.788
58.539
62.333
66.126
69.886
73.567
77.105
80.43
83.46
86.132
88.41
90.259
91.647
92.572
93.045
93.103
92.85
92.394
91.841
91.318
90.914
90.707
90.85
91.555
92.991
95.218
98.104
101.356
104.726
108.023
110.941
112.989
113.666
112.749
110.606
108.033
105.767
104.404
104.574
107.079
112.661
120.576
128.159
132.557
131.655
126.357
119.368
109.816
93.287
61.766
7.115
-72.216
-172.374
-286.582
-406.489
-523.861
-629.395
-710.251
-754.168
-755.665
-716.804
-648.626
-565.836
-477.854
-388.978
-299.121
-206.285
-112.493
-22.999
56.577
121.225
168.728
199.376
214.338
215.305
204.491
184.982
160.103
133.112
107.024
83.884
65.272
52.513
45.98
45.148
49.12
56.431
65.443
74.927
83.512
89.983
93.853
94.964
93.462
89.991
85.26
79.967
75.075
71.275
68.818
67.844
68.251
69.755
72.114
74.946
77.718
80.103
81.942
83.153
83.796
83.91
83.483
82.578
81.292
79.685
77.817
75.711
73.361
70.802
68.091
65.294
62.489
59.722
57.012
54.376
51.818
49.341
46.944
44.608
42.305
40.015
37.721
35.409
33.067
30.673
28.201
25.624
22.914
20.049
17.012
13.783
10.347
6.693
2.809
-1.31
-5.669
-10.274
-15.131
-20.244
-25.618
-31.253
-37.148
-43.3
-49.703
-56.351
-63.233
-70.334
-77.64
-85.133
-92.794
-100.601
-108.53
-116.557
-124.653
-132.79
-140.938
-149.064
-157.138
-165.124
-172.99
-180.701
-188.223
-195.522
-202.564
-209.318
-215.75
-221.83
-227.528
-232.816
-237.668
-242.057
-245.962
-249.361
-252.235
-254.569
-256.349
-257.564
-258.205
-258.268
-257.751
-256.655
-254.982
-252.74
-249.938
-246.589
-242.706
-238.307
-233.412
-228.042
-222.222
-215.978
-209.337
-202.328
-194.983
-187.333
-179.411
-171.25
-162.884
-154.348
-145.677
-136.904
-128.064
-119.192
-110.322
-101.485
-92.714
-84.04
-75.492
-67.098
-58.886
-50.878
-43.099
-35.57
-28.308
-21.332
-14.655
-8.292
-2.251
3.457
8.827
13.855
18.536
22.872
26.864
30.513
33.826
36.809
39.468
41.814
43.856
45.607
47.077
48.283
49.236
49.954
50.451
50.745
50.851
50.787
50.57
50.217
49.743
49.167
48.503
47.766
46.973
46.137
45.271
44.389
43.503
42.624
41.763
40.929
40.131
39.378
38.676
38.031
37.45
36.936
36.494
36.126
35.836
35.625
35.494
35.442
35.47
35.576
35.759
36.014
36.341
36.735
37.192
37.709
38.281
38.905
39.575
40.288
41.038
41.821
42.633
43.469
44.323
45.193
46.074
46.961
47.851
48.74
49.625
50.502
51.368
52.22
53.055
53.871
54.666
55.437
56.184
56.904
57.597
58.262
58.901
59.512
60.096
60.654
61.187
61.696
62.183
62.647
63.093
63.519
63.93
64.325
64.708
65.08
65.442
65.797
66.147
66.493
66.837
67.18
67.525
67.873
68.226
68.584
68.95
69.324
69.707
70.1
70.503
70.916
71.339
71.772
72.212
72.659
73.112
73.567
74.022
74.476
74.926
75.368
75.799
76.216
76.615
76.994
77.348
77.674
77.967
78.224
78.441
78.614
78.738
78.808
78.82
78.77
78.653
78.464
78.201
77.858
77.432
76.919
76.316
75.621
74.831
73.943
72.957
71.872
70.687
69.404
68.024
66.547
64.977
63.318
61.572
59.745
57.841
55.864
53.822
51.722
49.569
47.372
45.142
42.889
40.628
38.372
36.135
33.935
31.787
29.706
27.71
25.812
24.024
22.358
20.827
19.446
18.227
17.186
16.332
15.677
15.229
14.996
14.985
15.197
15.629
16.279
17.148
18.245
19.589
21.195
23.066
25.204
27.605
30.261
33.158
36.27
39.547
42.939
46.398
49.885
53.371
56.819
60.174
63.369
66.324
68.964
71.248
73.146
74.628
75.689
76.34
76.615
76.618
76.471
76.285
76.191
76.295
76.694
77.552
79.089
81.475
84.781
88.903
93.519
98.279
102.869
106.873
109.755
111.061
110.578
108.602
106.039
103.976
103.362
105.094
109.993
118.467
130.31
144.278
157.881
168.119
171.783
165.489
145.923
110.116
57.02
-11.634
-92.879
-182.886
-280.472
-387.582
-501.936
-617.339
-720.211
-790.219
-815.547
-792.986
-730.438
-646.84
-554.462
-460.095
-364.678
-262.973
-158.436
-58.028
29.753
95.149
138.972
164.74
176.464
180.074
175.28
162.436
144.527
123.36
102.82
86.097
73.624
65.826
63.069
64.717
69.799
77.052
84.606
90.957
95.631
98.39
98.818
96.913
92.973
87.497
81.537
76.145
71.77
68.65
66.988
66.756
67.88
70.218
73.326
76.669
79.904
82.769
85.112
86.915
88.132
88.725
88.727
88.198
87.197
85.791
84.015
81.881
79.422
76.678
73.712
70.6
67.418
64.234
61.094
58.026
55.051
52.177
49.407
46.733
44.136
41.585
39.061
36.545
34.022
31.475
28.878
26.203
23.424
20.515
17.457
14.231
10.821
7.211
3.389
-0.655
-4.927
-9.43
-14.171
-19.157
-24.391
-29.877
-35.617
-41.61
-47.854
-54.344
-61.075
-68.036
-75.216
-82.599
-90.168
-97.904
-105.787
-113.792
-121.895
-130.068
-138.284
-146.512
-154.721
-162.88
-170.956
-178.916
-186.725
-194.352
-201.762
-208.923
-215.802
-222.368
-228.59
-234.439
-239.887
-244.907
-249.474
-253.564
-257.155
-260.23
-262.769
-264.759
-266.186
-267.042
-267.32
-267.017
-266.13
-264.663
-262.62
-260.008
-256.838
-253.122
-248.876
-244.118
-238.867
-233.146
-226.978
-220.39
-213.408
-206.063
-198.383
-190.401
-182.149
-173.659
-164.965
-156.101
-147.101
-138
-128.831
-119.628
-110.425
-101.255
-92.148
-83.136
-74.249
-65.514
-56.959
-48.609
-40.486
-32.614
-25.01
-17.693
-10.679
-3.982
2.387
8.418
14.103
19.437
24.415
29.035
33.298
37.206
40.761
43.969
46.836
49.372
51.585
53.486
55.088
56.404
57.448
58.236
58.783
59.106
59.221
59.147
58.9
58.498
57.957
57.297
56.532
55.68
54.757
53.778
52.759
51.714
50.656
49.6
48.556
47.538
46.556
45.619
44.737
43.919
43.172
42.502
41.914
41.414
41.006
40.691
40.471
40.348
40.322
40.391
40.555
40.811
41.156
41.588
42.102
42.694
43.361
44.098
44.899
45.76
46.677
47.643
48.653
49.702
50.785
51.896
53.029
54.179
55.341
56.508
57.676
58.838
59.989
61.125
62.24
63.33
64.39
65.417
66.407
67.358
68.266
69.13
69.948
70.718
71.44
72.112
72.734
73.306
73.828
74.3
74.722
75.096
75.421
75.698
75.93
76.116
76.259
76.359
76.42
76.444
76.432
76.389
76.317
76.219
76.1
75.964
75.813
75.653
75.487
75.318
75.152
74.99
74.837
74.695
74.568
74.459
74.37
74.303
74.261
74.245
74.258
74.3
74.374
74.479
74.618
74.791
74.998
75.24
75.516
75.827
76.172
76.548
76.955
77.39
77.85
78.332
78.831
79.343
79.865
80.39
80.913
81.43
81.935
82.422
82.886
83.32
83.719
84.076
84.385
84.641
84.838
84.969
85.03
85.015
84.919
84.737
84.464
84.097
83.629
83.058
82.38
81.592
80.69
79.674
78.543
77.297
75.936
74.461
72.877
71.185
69.392
67.501
65.518
63.45
61.304
59.089
56.814
54.488
52.122
49.73
47.324
44.921
42.536
40.185
37.885
35.651
33.502
31.451
29.513
27.7
26.025
24.502
23.148
21.977
21.001
20.231
19.677
19.347
19.249
19.387
19.757
20.354
21.18
22.237
23.542
25.106
26.93
29.013
31.348
33.924
36.728
39.734
42.897
46.174
49.519
52.898
56.284
59.648
62.941
66.103
69.059
71.743
74.106
76.118
77.754
79.003
79.879
80.421
80.688
80.771
80.764
80.747
80.807
81.037
81.534
82.469
84.096
86.552
89.807
93.703
97.919
102.105
105.97
109.059
110.715
110.548
108.67
105.597
102.192
99.565
98.686
100.299
105.438
113.786
122.924
131.371
137.922
141.819
144.751
143.582
130.308
98.7
42.734
-36.473
-130.088
-232.558
-339.168
-445.974
-549.298
-638.067
-699.752
-726.984
-718.881
-683.561
-630.854
-566.549
-493.062
-409.145
-315.206
-215.306
-114.728
-20.148
62.89
131.206
182.925
217.6
236.185
240.224
231.422
212.622
187.433
159.385
131.966
107.83
88.166
73.672
65.077
62.148
63.844
68.75
74.871
80.512
85.008
87.926
88.71
87.264
83.835
78.943
73.65
68.994
65.407
63.087
62.194
62.664
64.387
67.171
70.525
73.89
76.919
79.415
81.287
82.558
83.221
83.255
82.715
81.696
80.282
78.545
76.524
74.23
71.697
68.984
66.16
63.302
60.477
57.718
55.045
52.467
49.985
47.599
45.297
43.058
40.851
38.653
36.446
34.215
31.941
29.602
27.169
24.612
21.905
19.028
15.962
12.692
9.201
5.478
1.513
-2.701
-7.168
-11.894
-16.885
-22.147
-27.683
-33.493
-39.575
-45.925
-52.538
-59.405
-66.514
-73.852
-81.401
-89.142
-97.057
-105.121
-113.312
-121.602
-129.964
-138.368
-146.784
-155.179
-163.521
-171.774
-179.904
-187.876
-195.656
-203.208
-210.498
-217.492
-224.158
-230.462
-236.375
-241.867
-246.911
-251.481
-255.553
-259.104
-262.117
-264.574
-266.46
-267.765
-268.481
-268.601
-268.124
-267.05
-265.382
-263.127
-260.294
-256.894
-252.944
-248.459
-243.46
-237.969
-232.011
-225.612
-218.802
-211.609
-204.067
-196.208
-188.066
-179.676
-171.073
-162.293
-153.371
-144.345
-135.249
-126.119
-116.99
-107.897
-98.871
-89.944
-81.148
-72.51
-64.058
-55.818
-47.813
-40.063
-32.589
-25.409
-18.536
-11.984
-5.764
0.116
5.651
10.836
15.669
20.152
24.286
28.077
31.529
34.652
37.453
39.943
42.135
44.042
45.676
47.054
48.19
49.101
49.802
50.312
50.646
50.822
50.856
50.765
50.565
50.272
49.901
49.466
48.981
48.46
47.914
47.356
46.795
46.241
45.703
45.187
44.702
44.252
43.842
43.477
43.158
42.89
42.672
42.508
42.395
42.336
42.329
42.373
42.467
42.608
42.796
43.027
43.299
43.609
43.955
44.335
44.744
45.181
45.643
46.127
46.631
47.151
47.686
48.234
48.791
49.356
49.927
50.503
51.081
51.661
52.241
52.819
53.396
53.968
54.536
55.099
55.654
56.202
56.741
57.271
57.79
58.299
58.795
59.278
59.748
60.204
60.645
61.072
61.483
61.878
62.258
62.622
62.97
63.304
63.622
63.926
64.216
64.494
64.759
65.013
65.258
65.495
65.725
65.949
66.169
66.386
66.603
66.819
67.038
67.26
67.487
67.719
67.959
68.205
68.46
68.722
68.992
69.269
69.553
69.841
70.132
70.424
70.714
71.001
71.28
71.549
71.804
72.04
72.253
72.437
72.589
72.702
72.769
72.786
72.745
72.641
72.468
72.219
71.889
71.471
70.961
70.353
69.643
68.826
67.899
66.858
65.701
64.429
63.04
61.535
59.914
58.182
56.341
54.396
52.353
50.217
47.994
45.693
43.323
40.892
38.413
35.896
33.355
30.807
28.269
25.759
23.296
20.896
18.58
16.366
14.27
12.307
10.491
8.835
7.354
6.066
4.984
4.117
3.478
3.073
2.91
2.996
3.332
3.911
4.729
5.788
7.095
8.668
10.516
12.641
15.038
17.702
20.622
23.783
27.153
30.681
34.312
37.998
41.699
45.389
49.023
52.538
55.861
58.907
61.61
63.937
65.856
67.334
68.371
68.984
69.215
69.18
68.993
68.752
68.584
68.595
68.883
69.622
71.04
73.29
76.424
80.314
84.617
88.976
93.111
96.629
98.989
99.757
98.788
96.469
93.826
92.048
91.934
94.106
99.433
108.304
120.328
134.377
147.025
154.128
153.514
142.503
119.975
86.457
39.369
-21.773
-97.09
-188.522
-294.041
-410.827
-532.028
-643.822
-730.525
-777.301
-777.075
-733.363
-658.259
-567.536
-472.377
-378.458
-286.411
-194.517
-104.932
-22.259
48.365
102.215
138.499
158.942
165.719
161.815
150.213
134.041
117.095
102.447
91.476
84.677
81.931
82.713
86.613
92.525
98.437
102.709
104.635
104.077
101.402
97.051
91.063
83.902
76.653
70.172
64.974
61.273
58.894
57.687
57.75
58.962
60.944
63.393
66.005
68.556
70.987
73.176
74.958
76.258
77.05
77.323
77.11
76.434
75.303
73.763
71.864
69.651
67.183
64.504
61.668
58.738
55.778
52.85
50.001
47.254
44.624
42.119
39.735
37.458
35.264
33.121
31.002
28.884
26.743
24.555
22.295
19.935
17.45
14.815
12.007
9.005
5.792
2.351
-1.331
-5.264
-9.456
-13.912
-18.636
-23.635
-28.911
-34.468
-40.304
-46.418
-52.806
-59.461
-66.375
-73.535
-80.926
-88.53
-96.328
-104.298
-112.416
-120.655
-128.988
-137.385
-145.815
-154.246
-162.644
-170.974
-179.201
-187.291
-195.207
-202.915
-210.38
-217.567
-224.442
-230.974
-237.13
-242.881
-248.199
-253.056
-257.428
-261.293
-264.629
-267.42
-269.65
-271.306
-272.38
-272.863
-272.752
-272.047
-270.749
-268.865
-266.4
-263.368
-259.782
-255.657
-251.013
-245.871
-240.255
-234.189
-227.702
-220.821
-213.578
-206.003
-198.131
-189.993
-181.625
-173.061
-164.337
-155.488
-146.549
-137.555
-128.54
-119.537
-110.581
-101.702
-92.93
-84.296
-75.826
-67.547
-59.482
-51.656
-44.087
-36.794
-29.793
-23.099
-16.722
-10.674
-4.96
0.413
5.442
10.126
14.464
18.46
22.117
25.441
28.44
31.121
33.496
35.577
37.375
38.906
40.184
41.224
42.042
42.656
43.083
43.339
43.443
43.412
43.263
43.015
42.683
42.285
41.836
41.351
40.846
40.333
39.825
39.334
38.871
38.447
38.071
37.75
37.494
37.307
37.197
37.168
37.223
37.366
37.599
37.922
38.337
38.842
39.437
40.119
40.887
41.736
42.664
43.666
44.737
45.873
47.067
48.315
49.609
50.946
52.317
53.719
55.144
56.587
58.042
59.505
60.969
62.43
63.883
65.322
66.742
68.14
69.51
70.85
72.154
73.421
74.646
75.827
76.962
78.049
79.086
80.072
81.008
81.891
82.723
83.504
84.235
84.918
85.554
86.146
86.695
87.205
87.678
88.117
88.525
88.904
89.259
89.59
89.903
90.2
90.485
90.761
91.031
91.299
91.568
91.841
92.121
92.411
92.713
93.03
93.363
93.714
94.085
94.477
94.888
95.321
95.773
96.242
96.728
97.227
97.735
98.25
98.766
99.28
99.785
100.278
100.752
101.201
101.62
102.002
102.341
102.629
102.86
103.027
103.121
103.136
103.065
102.902
102.638
102.269
101.787
101.187
100.464
99.613
98.628
97.508
96.247
94.846
93.302
91.618
89.793
87.831
85.736
83.513
81.168
78.709
76.142
73.475
70.72
67.887
64.987
62.034
59.04
56.023
53.001
49.993
47.017
44.094
41.241
38.48
35.831
33.314
30.949
28.75
26.736
24.923
23.332
21.981
20.883
20.049
19.486
19.201
19.203
19.498
20.083
20.954
22.102
23.525
25.23
27.222
29.498
32.049
34.86
37.914
41.194
44.676
48.318
52.075
55.899
59.74
63.559
67.32
70.982
74.508
77.855
80.967
83.783
86.249
88.324
90
91.317
92.296
92.93
93.289
93.545
93.975
94.881
96.403
98.458
101
104.206
108.135
112.536
116.758
119.865
121.288
121.059
119.306
115.74
110.186
103.043
95.488
89.326
86.083
86.416
90.566
99.182
111.732
125.834
138.658
147.393
151.911
154.388
154.223
145.57
118.504
64.497
-18.589
-124.307
-242.035
-365.004
-487.443
-604.058
-706.66
-779.241
-810.863
-798.019
-745.662
-669.666
-581.729
-488.146
-391.848
-290.292
-184.93
-81.61
13.794
94.795
157.308
200.901
226.226
234.411
227.682
209.143
182.26
150.952
119.205
89.74
64.685
46.208
35.251
31.629
34.693
42.892
54.121
66.877
79.604
90.37
98.12
102.43
103.148
100.844
96.434
90.587
84.212
78.488
74.033
71.146
69.96
70.202
71.534
73.696
76.241
78.634
80.58
81.916
82.582
82.665
82.21
81.226
79.789
77.985
75.877
73.515
70.923
68.104
65.094
61.956
58.755
55.563
52.425
49.361
46.389
43.513
40.737
38.057
35.455
32.91
30.403
27.92
25.446
22.967
20.461
17.904
15.267
12.522
9.647
6.621
3.425
0.044
-3.537
-7.331
-11.346
-15.59
-20.07
-24.795
-29.772
-35.005
-40.497
-46.249
-52.26
-58.524
-65.035
-71.783
-78.757
-85.941
-93.32
-100.874
-108.582
-116.423
-124.372
-132.402
-140.486
-148.595
-156.698
-164.764
-172.761
-180.655
-188.413
-196
-203.384
-210.531
-217.407
-223.981
-230.221
-236.096
-241.579
-246.641
-251.257
-255.404
-259.059
-262.204
-264.822
-266.898
-268.42
-269.381
-269.775
-269.598
-268.851
-267.535
-265.656
-263.222
-260.244
-256.734
-252.707
-248.18
-243.175
-237.711
-231.814
-225.508
-218.821
-211.78
-204.417
-196.761
-188.844
-180.699
-172.359
-163.858
-155.227
-146.502
-137.716
-128.9
-120.087
-111.308
-102.594
-93.972
-85.471
-77.117
-68.934
-60.945
-53.171
-45.632
-38.346
-31.328
-24.592
-18.15
-12.012
-6.187
-0.68
4.504
9.361
13.893
18.098
21.979
25.542
28.79
31.732
34.375
36.73
38.806
40.617
42.174
43.492
44.584
45.465
46.15
46.654
46.993
47.181
47.234
47.168
46.996
46.733
46.394
45.992
45.54
45.05
44.535
44.004
43.468
42.937
42.421
41.926
41.462
41.033
40.646
40.307
40.02
39.787
39.612
39.497
39.443
39.451
39.52
39.651
39.842
40.091
40.398
40.759
41.172
41.634
42.143
42.694
43.286
43.914
44.575
45.266
45.984
46.725
47.487
48.265
49.058
49.862
50.675
51.494
52.316
53.139
53.961
54.78
55.593
56.4
57.199
57.989
58.769
59.538
60.295
61.04
61.773
62.494
63.202
63.898
64.581
65.253
65.913
66.562
67.2
67.828
68.446
69.055
69.653
70.243
70.824
71.396
71.96
72.515
73.061
73.6
74.131
74.653
75.168
75.674
76.173
76.663
77.144
77.615
78.076
78.526
78.963
79.387
79.795
80.188
80.561
80.915
81.247
81.554
81.834
82.085
82.304
82.487
82.633
82.738
82.799
82.812
82.775
82.683
82.535
82.327
82.054
81.715
81.305
80.822
80.261
79.62
78.896
78.086
77.187
76.199
75.118
73.945
72.679
71.32
69.868
68.326
66.695
64.979
63.179
61.302
59.353
57.337
55.263
53.137
50.97
48.773
46.56
44.344
42.137
39.956
37.815
35.731
33.719
31.791
29.963
28.246
26.657
25.21
23.923
22.81
21.885
21.162
20.651
20.364
20.309
20.487
20.899
21.547
22.435
23.577
24.987
26.669
28.627
30.858
33.35
36.089
39.051
42.193
45.473
48.848
52.277
55.734
59.187
62.596
65.913
69.072
72.007
74.665
77
78.975
80.589
81.853
82.812
83.546
84.117
84.599
85.089
85.669
86.426
87.451
88.805
90.624
93.142
96.477
100.606
105.366
110.359
115.199
119.588
123.02
124.84
124.655
122.452
118.682
114.338
110.449
107.89
107.671
110.822
116.936
123.977
129.602
131.641
130.511
128.322
124.007
111.91
82.853
28.91
-51.653
-152.323
-263.2
-378.23
-491.89
-599.674
-694.218
-759.664
-785.437
-768.756
-714.848
-640.177
-557.333
-472.229
-386.558
-296.679
-202.353
-107.393
-17.068
62.41
127.6
177.52
212.174
232.686
240.027
235.168
220.602
199.284
174
147.666
122.295
99.263
80.337
66.985
59.437
57.308
59.674
65.037
72.385
80.83
88.873
95.208
99.185
100.508
99.454
96.749
92.889
88.439
84.302
81.126
79.252
78.845
79.708
81.467
83.827
86.393
88.707
90.501
91.631
92.035
91.782
90.941
89.559
87.73
85.552
83.085
80.374
77.447
74.32
71.043
67.683
64.308
60.969
57.69
54.483
51.35
48.291
45.297
42.349
39.418
36.483
33.529
30.542
27.512
24.419
21.24
17.949
14.52
10.931
7.161
3.194
-0.986
-5.39
-10.027
-14.904
-20.025
-25.395
-31.019
-36.902
-43.048
-49.458
-56.13
-63.06
-70.243
-77.67
-85.329
-93.207
-101.285
-109.547
-117.972
-126.538
-135.22
-143.992
-152.826
-161.692
-170.56
-179.397
-188.169
-196.842
-205.38
-213.749
-221.912
-229.834
-237.479
-244.813
-251.801
-258.41
-264.608
-270.364
-275.65
-280.438
-284.704
-288.424
-291.579
-294.15
-296.123
-297.485
-298.227
-298.343
-297.831
-296.689
-294.921
-292.533
-289.534
-285.936
-281.754
-277.006
-271.712
-265.895
-259.58
-252.795
-245.57
-237.936
-229.926
-221.574
-212.917
-203.99
-194.833
-185.483
-175.978
-166.358
-156.66
-146.923
-137.183
-127.478
-117.841
-108.308
-98.91
-89.68
-80.645
-71.833
-63.271
-54.98
-46.983
-39.298
-31.94
-24.925
-18.264
-11.966
-6.037
-0.482
4.696
9.498
13.927
17.985
21.68
25.02
28.013
30.673
33.012
35.044
36.784
38.25
39.457
40.425
41.17
41.712
42.069
42.26
42.303
42.216
42.018
41.726
41.357
40.928
40.454
39.951
39.431
38.908
38.394
37.899
37.434
37.006
36.624
36.295
36.024
35.816
35.675
35.604
35.604
35.678
35.825
36.045
36.335
36.695
37.121
37.609
38.157
38.76
39.414
40.114
40.856
41.634
42.442
43.276
44.128
44.993
45.864
46.735
47.601
48.457
49.296
50.114
50.905
51.666
52.392
53.079
53.723
54.321
54.868
55.362
55.801
56.184
56.507
56.772
56.979
57.131
57.232
57.287
57.3
57.279
57.23
57.16
57.077
56.985
56.89
56.798
56.717
56.658
56.632
56.649
56.72
56.857
57.071
57.373
57.772
58.271
58.874
59.588
60.428
61.42
62.589
63.955
65.534
67.339
69.376
71.646
74.133
76.799
79.607
82.518
85.496
88.517
91.547
94.538
97.431
100.148
102.608
104.739
106.472
107.746
108.533
108.832
108.674
108.127
107.249
106.107
104.77
103.295
101.737
100.136
98.567
97.228
96.324
95.976
96.217
96.894
97.753
98.607
99.112
98.637
96.684
93.084
87.997
82.084
76.343
71.742
69.478
71.276
76.884
82.842
84.953
78.748
65.834
57.228
62.484
83.933
107.066
97.538
22.77
-132.712
-353.408
